,ECG,time
0,1024.0,0.0
1,1024.0,0.0
2,1024.0,0.015624523162841797
3,1024.0,0.015624523162841797
4,1024.0,0.015624523162841797
5,1024.0,0.015624523162841797
6,1024.0,0.015624523162841797
7,1024.0,0.031249046325683594
8,1024.0,0.031249046325683594
9,1024.0,0.031249046325683594
10,1024.0,0.033252716064453125
11,1024.0,0.033252716064453125
12,1024.0,0.047271013259887695
13,1024.0,0.047271013259887695
14,1024.0,0.047271013259887695
15,1024.0,0.047271013259887695
16,1024.0,0.047271013259887695
17,1024.0,0.06290793418884277
18,1024.0,0.06290793418884277
19,1024.0,0.06290793418884277
20,1024.0,0.06290793418884277
21,1024.0,0.06290793418884277
22,1024.0,0.07854533195495605
23,1024.0,0.07854533195495605
24,1024.0,0.07854533195495605
25,1024.0,0.07854533195495605
26,1024.0,0.08655261993408203
27,1017.0,0.09455585479736328
28,932.0,0.09455585479736328
29,855.0,0.09455585479736328
30,818.0,0.11018586158752441
31,797.0,0.11018586158752441
32,746.0,0.11018586158752441
33,721.0,0.12581086158752441
34,717.0,0.12581086158752441
35,677.0,0.12581086158752441
36,651.0,0.1414356231689453
37,655.0,0.1414356231689453
38,636.0,0.1414356231689453
39,610.0,0.15863370895385742
40,618.0,0.15863370895385742
41,606.0,0.15863370895385742
42,584.0,0.17425870895385742
43,595.0,0.18070387840270996
44,597.0,0.18070387840270996
45,577.0,0.18070387840270996
46,579.0,0.18070387840270996
47,581.0,0.18070387840270996
48,553.0,0.18070387840270996
49,547.0,0.18070387840270996
50,558.0,0.18382859230041504
51,533.0,0.18695616722106934
52,521.0,0.18695616722106934
53,538.0,0.18695616722106934
54,522.0,0.18695616722106934
55,506.0,0.18695616722106934
56,525.0,0.18695616722106934
57,521.0,0.18695616722106934
58,497.0,0.18695616722106934
59,511.0,0.18695616722106934
60,512.0,0.18695616722106934
61,478.0,0.18695616722106934
62,465.0,0.18695616722106934
63,465.0,0.18695616722106934
64,444.0,0.1989607810974121
65,487.0,0.1989607810974121
66,545.0,0.1989607810974121
67,542.0,0.1989607810974121
68,543.0,0.1989607810974121
69,572.0,0.1989607810974121
70,567.0,0.1989607810974121
71,540.0,0.1989607810974121
72,542.0,0.1989607810974121
73,523.0,0.1989607810974121
74,493.0,0.1989607810974121
75,496.0,0.1989607810974121
76,495.0,0.1989607810974121
77,471.0,0.1989607810974121
78,476.0,0.1989607810974121
79,487.0,0.1989607810974121
80,462.0,0.1989607810974121
81,462.0,0.1989607810974121
82,480.0,0.1989607810974121
83,460.0,0.20146441459655762
84,453.0,0.20146441459655762
85,472.0,0.20146441459655762
86,464.0,0.20146441459655762
87,449.0,0.20146441459655762
88,473.0,0.20146441459655762
89,471.0,0.20146441459655762
90,453.0,0.20146441459655762
91,468.0,0.20146441459655762
92,475.0,0.20146441459655762
93,456.0,0.20146441459655762
94,460.0,0.20146441459655762
95,474.0,0.21709012985229492
96,451.0,0.21709012985229492
97,448.0,0.21709012985229492
98,465.0,0.21709012985229492
99,448.0,0.21709012985229492
100,439.0,0.21709012985229492
101,457.0,0.23271584510803223
102,449.0,0.24121975898742676
103,437.0,0.24121975898742676
104,458.0,0.24872446060180664
105,454.0,0.24872446060180664
106,437.0,0.24872446060180664
107,454.0,0.26435422897338867
108,460.0,0.26435422897338867
109,442.0,0.26435422897338867
110,450.0,0.27997851371765137
111,465.0,0.27997851371765137
112,440.0,0.27997851371765137
113,439.0,0.29560399055480957
114,458.0,0.29560399055480957
115,438.0,0.29560399055480957
116,428.0,0.31122875213623047
117,446.0,0.31122875213623047
118,438.0,0.31122875213623047
119,422.0,0.32685399055480957
120,442.0,0.32685399055480957
121,441.0,0.32685399055480957
122,423.0,0.3283579349517822
123,439.0,0.3283579349517822
124,446.0,0.3283579349517822
125,424.0,0.34398722648620605
126,429.0,0.34398722648620605
127,447.0,0.34398722648620605
128,424.0,0.35961270332336426
129,418.0,0.35961270332336426
130,441.0,0.35961270332336426
131,423.0,0.37523746490478516
132,412.0,0.37523746490478516
133,433.0,0.37523746490478516
134,427.0,0.39086222648620605
135,412.0,0.39086222648620605
136,432.0,0.39086222648620605
137,433.0,0.40648698806762695
138,413.0,0.40648698806762695
139,429.0,0.40648698806762695
140,437.0,0.42388010025024414
141,413.0,0.42688417434692383
142,421.0,0.42688417434692383
143,437.0,0.44034528732299805
144,410.0,0.4424772262573242
145,412.0,0.4424772262573242
146,439.0,0.4424772262573242
147,428.0,0.4581031799316406
148,423.0,0.4581031799316406
149,445.0,0.4581031799316406
150,437.0,0.4737277030944824
151,418.0,0.4737277030944824
152,439.0,0.4737277030944824
153,439.0,0.4893522262573242
154,414.0,0.4893522262573242
155,433.0,0.4893522262573242
156,441.0,0.5049781799316406
157,420.0,0.5049781799316406
158,422.0,0.5049781799316406
159,440.0,0.5206027030944824
160,417.0,0.5261228084564209
161,413.0,0.5261228084564209
162,432.0,0.5366613864898682
163,410.0,0.5366613864898682
164,385.0,0.5366613864898682
165,392.0,0.5522983074188232
166,373.0,0.5522983074188232
167,370.0,0.5522983074188232
168,451.0,0.5679330825805664
169,485.0,0.5679330825805664
170,480.0,0.5679330825805664
171,507.0,0.5835566520690918
172,528.0,0.5835566520690918
173,507.0,0.5835566520690918
174,497.0,0.5991880893707275
175,498.0,0.5991880893707275
176,460.0,0.5991880893707275
177,447.0,0.6148121356964111
178,460.0,0.6148121356964111
179,438.0,0.6263473033905029
180,424.0,0.6308507919311523
181,446.0,0.6308507919311523
182,440.0,0.6308507919311523
183,424.0,0.6465270519256592
184,446.0,0.6465270519256592
185,448.0,0.6465270519256592
186,430.0,0.6621572971343994
187,446.0,0.6621572971343994
188,458.0,0.6621572971343994
189,439.0,0.6778051853179932
190,441.0,0.6778051853179932
191,459.0,0.6778051853179932
192,441.0,0.6934065818786621
193,440.0,0.6934065818786621
194,459.0,0.6934065818786621
195,449.0,0.7090318202972412
196,440.0,0.7090318202972412
197,461.0,0.7090318202972412
198,457.0,0.7246565818786621
199,448.0,0.7246565818786621
200,469.0,0.7246565818786621
201,469.0,0.738670825958252
202,452.0,0.738670825958252
203,468.0,0.738670825958252
204,476.0,0.7543206214904785
205,454.0,0.7543206214904785
206,458.0,0.7543206214904785
207,475.0,0.7699449062347412
208,454.0,0.7699449062347412
209,450.0,0.7699449062347412
210,474.0,0.7855701446533203
211,462.0,0.7855701446533203
212,454.0,0.7855701446533203
213,477.0,0.8012003898620605
214,474.0,0.8012003898620605
215,460.0,0.8012003898620605
216,478.0,0.8168084621429443
217,481.0,0.8168084621429443
218,465.0,0.8248114585876465
219,477.0,0.8328146934509277
220,486.0,0.8328146934509277
221,463.0,0.8328146934509277
222,466.0,0.8484442234039307
223,483.0,0.8484442234039307
224,462.0,0.8484442234039307
225,460.0,0.8640687465667725
226,482.0,0.8640687465667725
227,468.0,0.8640687465667725
228,460.0,0.8796942234039307
229,481.0,0.8796942234039307
230,475.0,0.8796942234039307
231,465.0,0.8953189849853516
232,486.0,0.8953189849853516
233,487.0,0.8953189849853516
234,472.0,0.9109439849853516
235,488.0,0.9109439849853516
236,496.0,0.9109439849853516
237,477.0,0.926950216293335
238,482.0,0.926950216293335
239,501.0,0.926950216293335
240,478.0,0.9425787925720215
241,474.0,0.9425787925720215
242,496.0,0.9425787925720215
243,485.0,0.9582037925720215
244,474.0,0.9613959789276123
245,495.0,0.9632425308227539
246,495.0,0.9632425308227539
247,482.0,0.9632425308227539
248,505.0,0.9788675308227539
249,517.0,0.9788675308227539
250,499.0,0.9788675308227539
251,512.0,0.9945049285888672
252,524.0,0.9945049285888672
253,502.0,0.9945049285888672
254,505.0,1.0101497173309326
255,520.0,1.0101497173309326
256,498.0,1.021669864654541
257,497.0,1.0261764526367188
258,513.0,1.0261764526367188
259,502.0,1.0261764526367188
260,493.0,1.0418052673339844
261,516.0,1.0418052673339844
262,510.0,1.0418052673339844
263,496.0,1.0574302673339844
264,519.0,1.0574302673339844
265,518.0,1.0574302673339844
266,484.0,1.0730552673339844
267,482.0,1.0730552673339844
268,482.0,1.0730552673339844
269,465.0,1.0886802673339844
270,524.0,1.0886802673339844
271,579.0,1.0886802673339844
272,571.0,1.1043055057525635
273,582.0,1.1043055057525635
274,616.0,1.1043055057525635
275,603.0,1.1199300289154053
276,579.0,1.1199300289154053
277,584.0,1.1199300289154053
278,568.0,1.1339330673217773
279,542.0,1.1339330673217773
280,554.0,1.1339330673217773
281,555.0,1.1495616436004639
282,535.0,1.1495616436004639
283,542.0,1.1495616436004639
284,554.0,1.1651866436004639
285,535.0,1.1651866436004639
286,536.0,1.1651866436004639
287,555.0,1.180812120437622
288,535.0,1.180812120437622
289,533.0,1.180812120437622
290,553.0,1.196436882019043
291,543.0,1.196436882019043
292,537.0,1.196436882019043
293,559.0,1.212062120437622
294,556.0,1.212062120437622
295,543.0,1.2200653553009033
296,566.0,1.228081226348877
297,569.0,1.228081226348877
298,553.0,1.228081226348877
299,566.0,1.2437288761138916
300,580.0,1.2437288761138916
301,559.0,1.2437288761138916
302,561.0,1.259355068206787
303,583.0,1.259355068206787
304,564.0,1.259355068206787
305,558.0,1.2749814987182617
306,578.0,1.2749814987182617
307,569.0,1.2749814987182617
308,558.0,1.290604829788208
309,580.0,1.290604829788208
310,580.0,1.290604829788208
311,567.0,1.3062291145324707
312,586.0,1.3062291145324707
313,593.0,1.3062291145324707
314,579.0,1.3222439289093018
315,591.0,1.3222439289093018
316,603.0,1.3222439289093018
317,583.0,1.3378736972808838
318,586.0,1.3378736972808838
319,604.0,1.3378736972808838
320,584.0,1.3534982204437256
321,579.0,1.3534982204437256
322,597.0,1.3534982204437256
323,586.0,1.3691229820251465
324,574.0,1.3691229820251465
325,596.0,1.3691229820251465
326,594.0,1.3847477436065674
327,578.0,1.3847477436065674
328,597.0,1.3847477436065674
329,602.0,1.4003727436065674
330,585.0,1.4003727436065674
331,595.0,1.4003727436065674
332,609.0,1.4159977436065674
333,590.0,1.420501947402954
334,590.0,1.420501947402954
335,609.0,1.4320049285888672
336,591.0,1.4320049285888672
337,586.0,1.4320049285888672
338,607.0,1.447633981704712
339,600.0,1.447633981704712
340,588.0,1.447633981704712
341,609.0,1.4632713794708252
342,609.0,1.4632713794708252
343,594.0,1.4632713794708252
344,613.0,1.479330062866211
345,618.0,1.482731580734253
346,601.0,1.4856007099151611
347,612.0,1.4856007099151611
348,625.0,1.4856007099151611
349,603.0,1.5012412071228027
350,612.0,1.5012412071228027
351,636.0,1.5012412071228027
352,617.0,1.518355369567871
353,616.0,1.518355369567871
354,634.0,1.518355369567871
355,622.0,1.5328588485717773
356,608.0,1.5328588485717773
357,628.0,1.5328588485717773
358,627.0,1.5484886169433594
359,608.0,1.5484886169433594
360,626.0,1.5484886169433594
361,632.0,1.5641136169433594
362,613.0,1.5641136169433594
363,620.0,1.5641136169433594
364,634.0,1.579737901687622
365,614.0,1.579737901687622
366,613.0,1.579737901687622
367,626.0,1.5953631401062012
368,592.0,1.5953631401062012
369,572.0,1.5953631401062012
370,581.0,1.6109883785247803
371,585.0,1.6109883785247803
372,634.0,1.6109883785247803
373,682.0,1.620755672454834
374,693.0,1.620755672454834
375,690.0,1.620755672454834
376,722.0,1.620755672454834
377,724.0,1.620755672454834
378,688.0,1.620755672454834
379,682.0,1.620755672454834
380,678.0,1.620755672454834
381,645.0,1.620755672454834
382,639.0,1.620755672454834
383,652.0,1.620755672454834
384,632.0,1.620755672454834
385,626.0,1.620755672454834
386,644.0,1.620755672454834
387,636.0,1.620755672454834
388,625.0,1.620755672454834
389,646.0,1.620755672454834
390,642.0,1.620755672454834
391,627.0,1.6327595710754395
392,646.0,1.6327595710754395
393,655.0,1.6327595710754395
394,634.0,1.6327595710754395
395,643.0,1.6327595710754395
396,661.0,1.6327595710754395
397,639.0,1.6327595710754395
398,638.0,1.6327595710754395
399,658.0,1.6327595710754395
400,643.0,1.6327595710754395
401,636.0,1.6327595710754395
402,656.0,1.6327595710754395
403,650.0,1.6327595710754395
404,637.0,1.6327595710754395
405,656.0,1.6327595710754395
406,655.0,1.6327595710754395
407,641.0,1.6327595710754395
408,657.0,1.6327595710754395
409,662.0,1.6327595710754395
410,643.0,1.6352639198303223
411,652.0,1.6352639198303223
412,666.0,1.6352639198303223
413,645.0,1.6352639198303223
414,648.0,1.6352639198303223
415,667.0,1.6352639198303223
416,650.0,1.6352639198303223
417,644.0,1.6352639198303223
418,667.0,1.6352639198303223
419,657.0,1.6352639198303223
420,644.0,1.6352639198303223
421,666.0,1.6352639198303223
422,664.0,1.6352639198303223
423,644.0,1.6352639198303223
424,661.0,1.6352639198303223
425,663.0,1.6352639198303223
426,641.0,1.6352639198303223
427,648.0,1.6352639198303223
428,662.0,1.6352639198303223
429,639.0,1.6437671184539795
430,638.0,1.6437671184539795
431,654.0,1.651270866394043
432,638.0,1.651270866394043
433,630.0,1.651270866394043
434,650.0,1.666900396347046
435,643.0,1.666900396347046
436,630.0,1.666900396347046
437,652.0,1.666900396347046
438,649.0,1.666900396347046
439,633.0,1.666900396347046
440,648.0,1.682525634765625
441,654.0,1.682525634765625
442,634.0,1.682525634765625
443,641.0,1.698150634765625
444,653.0,1.698150634765625
445,630.0,1.698150634765625
446,633.0,1.7000417709350586
447,652.0,1.707193374633789
448,631.0,1.7114877700805664
449,626.0,1.7114877700805664
450,649.0,1.7114877700805664
451,641.0,1.7114877700805664
452,630.0,1.7114877700805664
453,656.0,1.7114877700805664
454,657.0,1.7114877700805664
455,636.0,1.7114877700805664
456,649.0,1.7114877700805664
457,655.0,1.7114877700805664
458,632.0,1.7114877700805664
459,636.0,1.7114877700805664
460,650.0,1.7114877700805664
461,627.0,1.7114877700805664
462,624.0,1.7114877700805664
463,639.0,1.7270822525024414
464,621.0,1.7270822525024414
465,616.0,1.7270822525024414
466,637.0,1.7270822525024414
467,627.0,1.7270822525024414
468,613.0,1.7270822525024414
469,618.0,1.7325856685638428
470,600.0,1.7325856685638428
471,569.0,1.7325856685638428
472,586.0,1.7482147216796875
473,642.0,1.7482147216796875
474,663.0,1.7482147216796875
475,679.0,1.7638401985168457
476,710.0,1.7638401985168457
477,696.0,1.7638401985168457
478,696.0,1.7794654369354248
479,703.0,1.7794654369354248
480,666.0,1.7794654369354248
481,641.0,1.7950904369354248
482,648.0,1.7950904369354248
483,634.0,1.7950904369354248
484,613.0,1.8107144832611084
485,632.0,1.8107144832611084
486,629.0,1.8107144832611084
487,610.0,1.8273441791534424
488,622.0,1.8273441791534424
489,629.0,1.8273441791534424
490,607.0,1.8423490524291992
491,613.0,1.8423490524291992
492,627.0,1.8423490524291992
493,604.0,1.857978105545044
494,601.0,1.857978105545044
495,618.0,1.857978105545044
496,602.0,1.8736040592193604
497,594.0,1.8736040592193604
498,615.0,1.8736040592193604
499,606.0,1.8892288208007812
500,595.0,1.8892288208007812
501,617.0,1.8892288208007812
502,615.0,1.9048538208007812
503,595.0,1.9048538208007812
504,614.0,1.9048538208007812
505,621.0,1.9204785823822021
506,598.0,1.9274818897247314
507,606.0,1.9274818897247314
508,620.0,1.9364848136901855
509,595.0,1.9364848136901855
510,593.0,1.9364848136901855
511,613.0,1.9521136283874512
512,596.0,1.9521136283874512
513,585.0,1.9521136283874512
514,609.0,1.9677398204803467
515,604.0,1.9677398204803467
516,590.0,1.9677398204803467
517,610.0,1.9833836555480957
518,610.0,1.9833836555480957
519,596.0,1.9833836555480957
520,606.0,1.9989895820617676
521,615.0,1.9989895820617676
522,593.0,1.9989895820617676
523,596.0,2.0146145820617676
524,608.0,2.0146145820617676
525,585.0,2.0276176929473877
526,581.0,2.03062105178833
527,596.0,2.03062105178833
528,579.0,2.03062105178833
529,570.0,2.046250104904175
530,590.0,2.046250104904175
531,582.0,2.046250104904175
532,568.0,2.061875343322754
533,589.0,2.061875343322754
534,589.0,2.061875343322754
535,572.0,2.077500581741333
536,588.0,2.077500581741333
537,595.0,2.077500581741333
538,571.0,2.093125820159912
539,578.0,2.093125820159912
540,592.0,2.093125820159912
541,570.0,2.108750104904175
542,568.0,2.108750104904175
543,585.0,2.108750104904175
544,568.0,2.124375581741333
545,558.0,2.124375581741333
546,579.0,2.124375581741333
547,573.0,2.13863468170166
548,557.0,2.1418819427490234
549,576.0,2.1433894634246826
550,578.0,2.1433894634246826
551,560.0,2.1433894634246826
552,571.0,2.159015417098999
553,581.0,2.159015417098999
554,567.0,2.159015417098999
555,570.0,2.174640417098999
556,585.0,2.174640417098999
557,561.0,2.174640417098999
558,558.0,2.1902658939361572
559,571.0,2.1902658939361572
560,553.0,2.1902658939361572
561,545.0,2.205890655517578
562,561.0,2.205890655517578
563,555.0,2.205890655517578
564,540.0,2.221515655517578
565,561.0,2.221515655517578
566,559.0,2.221515655517578
567,540.0,2.237140655517578
568,553.0,2.237140655517578
569,562.0,2.237140655517578
570,533.0,2.252764940261841
571,521.0,2.252764940261841
572,524.0,2.252764940261841
573,488.0,2.2683908939361572
574,490.0,2.2683908939361572
575,567.0,2.2683908939361572
576,585.0,2.2840158939361572
577,588.0,2.2840158939361572
578,618.0,2.2840158939361572
579,625.0,2.299640655517578
580,609.0,2.299640655517578
581,613.0,2.299640655517578
582,597.0,2.31526517868042
583,564.0,2.3217692375183105
584,564.0,2.3217692375183105
585,562.0,2.331273317337036
586,536.0,2.331273317337036
587,536.0,2.331273317337036
588,549.0,2.34690260887146
589,524.0,2.34690260887146
590,521.0,2.34690260887146
591,540.0,2.362527847290039
592,523.0,2.362527847290039
593,513.0,2.362527847290039
594,534.0,2.3781611919403076
595,530.0,2.3781611919403076
596,514.0,2.3781611919403076
597,536.0,2.3937783241271973
598,537.0,2.3937783241271973
599,518.0,2.3937783241271973
600,533.0,2.409402847290039
601,543.0,2.409402847290039
602,519.0,2.4219062328338623
603,521.0,2.425410032272339
604,540.0,2.425410032272339
605,517.0,2.425410032272339
606,511.0,2.441039562225342
607,532.0,2.441039562225342
608,519.0,2.441039562225342
609,506.0,2.4566650390625
610,530.0,2.4566650390625
611,525.0,2.4566650390625
612,508.0,2.472289562225342
613,526.0,2.472289562225342
614,529.0,2.472289562225342
615,513.0,2.487914562225342
616,526.0,2.487914562225342
617,535.0,2.487914562225342
618,516.0,2.5035393238067627
619,521.0,2.5035393238067627
620,537.0,2.5035393238067627
621,516.0,2.5191650390625
622,513.0,2.5191650390625
623,533.0,2.5191650390625
624,517.0,2.532183885574341
625,506.0,2.532183885574341
626,526.0,2.532183885574341
627,522.0,2.5478334426879883
628,505.0,2.5478334426879883
629,523.0,2.5478334426879883
630,525.0,2.5634446144104004
631,504.0,2.5634446144104004
632,516.0,2.5634446144104004
633,526.0,2.579082489013672
634,500.0,2.579082489013672
635,505.0,2.579082489013672
636,524.0,2.594702959060669
637,504.0,2.594702959060669
638,498.0,2.594702959060669
639,517.0,2.6103405952453613
640,505.0,2.6103405952453613
641,494.0,2.6193485260009766
642,514.0,2.6263515949249268
643,509.0,2.6263515949249268
644,496.0,2.6263515949249268
645,514.0,2.6419804096221924
646,517.0,2.6419804096221924
647,498.0,2.6419804096221924
648,510.0,2.659313917160034
649,519.0,2.6633007526397705
650,498.0,2.664900779724121
651,501.0,2.664900779724121
652,516.0,2.664900779724121
653,495.0,2.6805262565612793
654,493.0,2.6805262565612793
655,511.0,2.6805262565612793
656,499.0,2.696150779724121
657,494.0,2.696150779724121
658,522.0,2.696150779724121
659,521.0,2.7117760181427
660,506.0,2.7172796726226807
661,525.0,2.7172796726226807
662,526.0,2.727783203125
663,502.0,2.727783203125
664,510.0,2.727783203125
665,522.0,2.743413209915161
666,499.0,2.743413209915161
667,498.0,2.743413209915161
668,514.0,2.759037733078003
669,495.0,2.759037733078003
670,487.0,2.759037733078003
671,504.0,2.774662494659424
672,495.0,2.774662494659424
673,484.0,2.774662494659424
674,499.0,2.790288209915161
675,481.0,2.790288209915161
676,451.0,2.790288209915161
677,459.0,2.805912733078003
678,468.0,2.805912733078003
679,504.0,2.817415952682495
680,549.0,2.8219454288482666
681,571.0,2.8219454288482666
682,564.0,2.8219454288482666
683,576.0,2.8375864028930664
684,592.0,2.8375864028930664
685,555.0,2.8375864028930664
686,536.0,2.8532090187072754
687,538.0,2.8532090187072754
688,516.0,2.8532090187072754
689,496.0,2.8688249588012695
690,512.0,2.8688249588012695
691,507.0,2.8688249588012695
692,487.0,2.8844552040100098
693,506.0,2.8844552040100098
694,509.0,2.8844552040100098
695,489.0,2.9000747203826904
696,499.0,2.9000747203826904
697,510.0,2.9000747203826904
698,489.0,2.91772198677063
699,493.0,2.91772198677063
700,512.0,2.91772198677063
701,495.0,2.931730270385742
702,488.0,2.931730270385742
703,508.0,2.931730270385742
704,499.0,2.9473717212677
705,489.0,2.9473717212677
706,511.0,2.9473717212677
707,508.0,2.962984800338745
708,496.0,2.962984800338745
709,513.0,2.962984800338745
710,517.0,2.978609323501587
711,499.0,2.978609323501587
712,510.0,2.978609323501587
713,521.0,2.9942336082458496
714,501.0,2.9942336082458496
715,504.0,2.9942336082458496
716,522.0,3.009859561920166
717,501.0,3.009859561920166
718,496.0,3.009859561920166
719,519.0,3.017876386642456
720,511.0,3.017876386642456
721,499.0,3.017876386642456
722,523.0,3.0335309505462646
723,523.0,3.0335309505462646
724,504.0,3.0335309505462646
725,523.0,3.049152135848999
726,530.0,3.049152135848999
727,511.0,3.049152135848999
728,517.0,3.0647761821746826
729,530.0,3.0647761821746826
730,507.0,3.0647761821746826
731,509.0,3.0804033279418945
732,524.0,3.0804033279418945
733,506.0,3.0804033279418945
734,499.0,3.0960283279418945
735,517.0,3.0960283279418945
736,507.0,3.0960283279418945
737,498.0,3.1120381355285645
738,519.0,3.1120381355285645
739,516.0,3.1120381355285645
740,499.0,3.127667188644409
741,519.0,3.127667188644409
742,522.0,3.127667188644409
743,502.0,3.143292188644409
744,512.0,3.143292188644409
745,526.0,3.143292188644409
746,504.0,3.158917188644409
747,506.0,3.158917188644409
748,525.0,3.158917188644409
749,506.0,3.1745424270629883
750,499.0,3.1745424270629883
751,521.0,3.1745424270629883
752,510.0,3.1908857822418213
753,498.0,3.1951656341552734
754,522.0,3.1951656341552734
755,521.0,3.1951656341552734
756,504.0,3.2086689472198486
757,522.0,3.2086689472198486
758,529.0,3.2086689472198486
759,509.0,3.2086689472198486
760,517.0,3.2086689472198486
761,532.0,3.2086689472198486
762,509.0,3.2086689472198486
763,507.0,3.2086689472198486
764,528.0,3.2086689472198486
765,511.0,3.2086689472198486
766,509.0,3.2086689472198486
767,533.0,3.2086689472198486
768,528.0,3.2086689472198486
769,519.0,3.2086689472198486
770,541.0,3.2086689472198486
771,536.0,3.2086689472198486
772,520.0,3.2086689472198486
773,534.0,3.2086689472198486
774,536.0,3.2086689472198486
775,518.0,3.2132084369659424
776,525.0,3.2132084369659424
777,540.0,3.2132084369659424
778,516.0,3.2132084369659424
779,516.0,3.2132084369659424
780,535.0,3.2132084369659424
781,517.0,3.2132084369659424
782,507.0,3.2132084369659424
783,524.0,3.2132084369659424
784,504.0,3.2132084369659424
785,475.0,3.2132084369659424
786,487.0,3.2132084369659424
787,492.0,3.2132084369659424
788,528.0,3.2132084369659424
789,572.0,3.2132084369659424
790,585.0,3.2132084369659424
791,580.0,3.2132084369659424
792,603.0,3.2132084369659424
793,618.0,3.2132084369659424
794,584.0,3.2132084369659424
795,570.0,3.2132084369659424
796,572.0,3.2132084369659424
797,544.0,3.2132084369659424
798,531.0,3.2132084369659424
799,546.0,3.2132084369659424
800,536.0,3.2132084369659424
801,524.0,3.2132084369659424
802,543.0,3.2132084369659424
803,541.0,3.2132084369659424
804,521.0,3.2132084369659424
805,538.0,3.2132084369659424
806,545.0,3.2132084369659424
807,524.0,3.2132084369659424
808,534.0,3.2132084369659424
809,547.0,3.2132084369659424
810,523.0,3.2132084369659424
811,526.0,3.2132084369659424
812,547.0,3.2132084369659424
813,533.0,3.2132084369659424
814,524.0,3.2142117023468018
815,546.0,3.2142117023468018
816,540.0,3.2142117023468018
817,528.0,3.229215145111084
818,550.0,3.229215145111084
819,555.0,3.229215145111084
820,540.0,3.244844675064087
821,554.0,3.244844675064087
822,562.0,3.244844675064087
823,544.0,3.260469913482666
824,546.0,3.260469913482666
825,561.0,3.260469913482666
826,542.0,3.276094913482666
827,543.0,3.276094913482666
828,560.0,3.276094913482666
829,545.0,3.291719913482666
830,542.0,3.291719913482666
831,562.0,3.291719913482666
832,555.0,3.307344913482666
833,544.0,3.314347982406616
834,569.0,3.314347982406616
835,569.0,3.3233516216278076
836,553.0,3.3233516216278076
837,568.0,3.3233516216278076
838,573.0,3.3389816284179688
839,550.0,3.3389816284179688
840,554.0,3.3389816284179688
841,571.0,3.3546063899993896
842,550.0,3.3546063899993896
843,547.0,3.3546063899993896
844,564.0,3.370231866836548
845,549.0,3.370231866836548
846,542.0,3.370231866836548
847,564.0,3.3858566284179688
848,557.0,3.3858566284179688
849,546.0,3.3858566284179688
850,572.0,3.401481866836548
851,573.0,3.401481866836548
852,557.0,3.414485216140747
853,572.0,3.4204397201538086
854,580.0,3.4244132041931152
855,561.0,3.4244132041931152
856,567.0,3.4244132041931152
857,582.0,3.4244132041931152
858,562.0,3.4244132041931152
859,559.0,3.4244132041931152
860,577.0,3.4244132041931152
861,564.0,3.4244132041931152
862,557.0,3.4244132041931152
863,577.0,3.4244132041931152
864,571.0,3.4244132041931152
865,558.0,3.4244132041931152
866,576.0,3.4244132041931152
867,578.0,3.4244132041931152
868,562.0,3.4244132041931152
869,579.0,3.4244132041931152
870,589.0,3.4244132041931152
871,565.0,3.4244132041931152
872,568.0,3.4244132041931152
873,586.0,3.4244132041931152
874,568.0,3.4244132041931152
875,565.0,3.4244132041931152
876,586.0,3.4244132041931152
877,579.0,3.4244132041931152
878,568.0,3.4244132041931152
879,592.0,3.4244132041931152
880,596.0,3.4244132041931152
881,581.0,3.4244132041931152
882,596.0,3.4244132041931152
883,597.0,3.4244132041931152
884,579.0,3.4244132041931152
885,590.0,3.4244132041931152
886,600.0,3.4244132041931152
887,581.0,3.4244132041931152
888,584.0,3.4244132041931152
889,598.0,3.4244132041931152
890,581.0,3.4244132041931152
891,577.0,3.4254164695739746
892,595.0,3.4254164695739746
893,582.0,3.4254164695739746
894,572.0,3.4404211044311523
895,584.0,3.4404211044311523
896,567.0,3.4404211044311523
897,543.0,3.456050157546997
898,559.0,3.456050157546997
899,591.0,3.456050157546997
900,624.0,3.456050157546997
901,646.0,3.456050157546997
902,665.0,3.456050157546997
903,661.0,3.471675157546997
904,669.0,3.471675157546997
905,678.0,3.471675157546997
906,643.0,3.487299680709839
907,624.0,3.487299680709839
908,629.0,3.487299680709839
909,610.0,3.502925157546997
910,593.0,3.509927988052368
911,607.0,3.509927988052368
912,606.0,3.518932342529297
913,590.0,3.518932342529297
914,605.0,3.518932342529297
915,609.0,3.5345613956451416
916,592.0,3.5345613956451416
917,600.0,3.5345613956451416
918,610.0,3.5501866340637207
919,593.0,3.5501866340637207
920,594.0,3.5501866340637207
921,612.0,3.5658116340637207
922,597.0,3.5658116340637207
923,592.0,3.5658116340637207
924,609.0,3.5814366340637207
925,601.0,3.5814366340637207
926,592.0,3.5814366340637207
927,610.0,3.5970616340637207
928,609.0,3.5970616340637207
929,592.0,3.61006498336792
930,612.0,3.613067865371704
931,618.0,3.613067865371704
932,603.0,3.613067865371704
933,610.0,3.6286962032318115
934,626.0,3.6286962032318115
935,609.0,3.6286962032318115
936,607.0,3.6443233489990234
937,622.0,3.6443233489990234
938,612.0,3.6443233489990234
939,603.0,3.6599478721618652
940,619.0,3.6599478721618652
941,618.0,3.6599478721618652
942,608.0,3.6755728721618652
943,625.0,3.6755728721618652
944,631.0,3.6755728721618652
945,620.0,3.6911978721618652
946,631.0,3.6911978721618652
947,641.0,3.6911978721618652
948,627.0,3.7068235874176025
949,629.0,3.7068235874176025
950,640.0,3.7068235874176025
951,625.0,3.719329595565796
952,619.0,3.719329595565796
953,632.0,3.719329595565796
954,619.0,3.737238883972168
955,607.0,3.7412381172180176
956,618.0,3.7412381172180176
957,619.0,3.7412381172180176
958,606.0,3.7412381172180176
959,622.0,3.7412381172180176
960,631.0,3.7412381172180176
961,622.0,3.7412381172180176
962,634.0,3.7412381172180176
963,644.0,3.7412381172180176
964,634.0,3.7412381172180176
965,634.0,3.7412381172180176
966,645.0,3.7412381172180176
967,636.0,3.7412381172180176
968,627.0,3.7412381172180176
969,642.0,3.7412381172180176
970,637.0,3.7412381172180176
971,621.0,3.7412381172180176
972,629.0,3.7412381172180176
973,633.0,3.7412381172180176
974,622.0,3.7412381172180176
975,625.0,3.7412381172180176
976,634.0,3.7412381172180176
977,622.0,3.7412381172180176
978,628.0,3.7412381172180176
979,639.0,3.7412381172180176
980,631.0,3.7412381172180176
981,627.0,3.7412381172180176
982,637.0,3.7412381172180176
983,630.0,3.7412381172180176
984,622.0,3.7412381172180176
985,633.0,3.7412381172180176
986,630.0,3.7412381172180176
987,619.0,3.747742176055908
988,629.0,3.747742176055908
989,641.0,3.757246732711792
990,633.0,3.757246732711792
991,644.0,3.757246732711792
992,661.0,3.772876262664795
993,646.0,3.772876262664795
994,648.0,3.772876262664795
995,661.0,3.788501262664795
996,655.0,3.788501262664795
997,644.0,3.788501262664795
998,660.0,3.804126262664795
999,660.0,3.804126262664795
1000,643.0,3.804126262664795
1001,654.0,3.819751262664795
1002,658.0,3.819751262664795
1003,643.0,3.819751262664795
1004,644.0,3.835376024246216
1005,657.0,3.835376024246216
1006,640.0,3.847879409790039
1007,624.0,3.8513829708099365
1008,631.0,3.8513829708099365
1009,613.0,3.8513829708099365
1010,614.0,3.867011785507202
1011,685.0,3.867011785507202
1012,714.0,3.867011785507202
1013,701.0,3.8826496601104736
1014,727.0,3.8826496601104736
1015,744.0,3.8826496601104736
1016,727.0,3.8982622623443604
1017,725.0,3.8982622623443604
1018,722.0,3.8982622623443604
1019,690.0,3.9139060974121094
1020,679.0,3.9139060974121094
1021,691.0,3.9139060974121094
1022,675.0,3.9295132160186768
1023,669.0,3.9295132160186768
1024,693.0,3.9295132160186768
1025,685.0,3.948155164718628
1026,674.0,3.948155164718628
1027,705.0,3.948155164718628
1028,706.0,3.961162805557251
1029,682.0,3.961162805557251
1030,708.0,3.961162805557251
1031,722.0,3.976792335510254
1032,692.0,3.976792335510254
1033,697.0,3.976792335510254
1034,726.0,3.9924168586730957
1035,710.0,3.9924168586730957
1036,669.0,3.9924168586730957
1037,694.0,4.008041620254517
1038,710.0,4.008041620254517
1039,710.0,4.008041620254517
1040,653.0,4.0236899852752686
1041,713.0,4.0236899852752686
1042,717.0,4.0236899852752686
1043,638.0,4.039292097091675
1044,751.0,4.039292097091675
1045,760.0,4.039292097091675
1046,630.0,4.046295642852783
1047,776.0,4.046295642852783
1048,732.0,4.046295642852783
1049,882.0,4.061924934387207
1050,769.0,4.061924934387207
1051,655.0,4.061924934387207
1052,722.0,4.077561378479004
1053,852.0,4.077561378479004
1054,708.0,4.077561378479004
1055,631.0,4.093191146850586
1056,973.0,4.093191146850586
1057,775.0,4.093191146850586
1058,665.0,4.111005067825317
1059,892.0,4.114298582077026
1060,739.0,4.114298582077026
1061,645.0,4.114298582077026
1062,968.0,4.129971504211426
1063,805.0,4.129971504211426
1064,675.0,4.1384782791137695
1065,931.0,4.145982503890991
1066,825.0,4.145982503890991
1067,693.0,4.145982503890991
1068,735.0,4.161611318588257
1069,867.0,4.161611318588257
1070,715.0,4.161611318588257
1071,633.0,4.177236318588257
1072,900.0,4.177236318588257
1073,736.0,4.177236318588257
1074,646.0,4.192861318588257
1075,979.0,4.192861318588257
1076,786.0,4.192861318588257
1077,667.0,4.208486795425415
1078,907.0,4.208486795425415
1079,762.0,4.208486795425415
1080,654.0,4.2241127490997314
1081,939.0,4.2241127490997314
1082,856.0,4.2241127490997314
1083,704.0,4.240119934082031
1084,735.0,4.240119934082031
1085,937.0,4.240119934082031
1086,746.0,4.255749225616455
1087,649.0,4.255749225616455
1088,879.0,4.255749225616455
1089,724.0,4.271374225616455
1090,636.0,4.271374225616455
1091,990.0,4.271374225616455
1092,800.0,4.286999225616455
1093,675.0,4.286999225616455
1094,1011.0,4.286999225616455
1095,799.0,4.302623987197876
1096,673.0,4.302623987197876
1097,994.0,4.302623987197876
1098,821.0,4.318249225616455
1099,681.0,4.318249225616455
1100,933.0,4.318249225616455
1101,856.0,4.333874702453613
1102,701.0,4.338878154754639
1103,697.0,4.338878154754639
1104,909.0,4.349881649017334
1105,736.0,4.349881649017334
1106,643.0,4.349881649017334
1107,937.0,4.365512132644653
1108,756.0,4.365512132644653
1109,646.0,4.365512132644653
1110,1005.0,4.381137371063232
1111,773.0,4.381137371063232
1112,661.0,4.381137371063232
1113,1024.0,4.39678168296814
1114,774.0,4.39678168296814
1115,669.0,4.39678168296814
1116,927.0,4.412387371063232
1117,758.0,4.412387371063232
1118,653.0,4.412387371063232
1119,997.0,4.428012132644653
1120,826.0,4.428012132644653
1121,690.0,4.439015626907349
1122,964.0,4.444019079208374
1123,880.0,4.444019079208374
1124,726.0,4.444019079208374
1125,687.0,4.459648847579956
1126,864.0,4.459648847579956
1127,714.0,4.459648847579956
1128,631.0,4.475273609161377
1129,978.0,4.475273609161377
1130,781.0,4.475273609161377
1131,667.0,4.490898132324219
1132,1024.0,4.490898132324219
1133,788.0,4.490898132324219
1134,670.0,4.506523847579956
1135,1023.0,4.506523847579956
1136,776.0,4.506523847579956
1137,661.0,4.506523847579956
1138,1023.0,4.506523847579956
1139,777.0,4.522148370742798
1140,668.0,4.522148370742798
1141,975.0,4.522148370742798
1142,790.0,4.536667346954346
1143,669.0,4.536667346954346
1144,963.0,4.536667346954346
1145,808.0,4.552316427230835
1146,681.0,4.552316427230835
1147,904.0,4.552316427230835
1148,860.0,4.567942142486572
1149,712.0,4.567942142486572
1150,661.0,4.567942142486572
1151,917.0,4.583554267883301
1152,739.0,4.583554267883301
1153,650.0,4.583554267883301
1154,862.0,4.5991973876953125
1155,714.0,4.5991973876953125
1156,632.0,4.5991973876953125
1157,985.0,4.61482048034668
1158,798.0,4.618812084197998
1159,669.0,4.621937036514282
1160,1013.0,4.621937036514282
1161,806.0,4.621937036514282
1162,679.0,4.637562990188599
1163,1024.0,4.637562990188599
1164,818.0,4.637562990188599
1165,685.0,4.653188943862915
1166,1013.0,4.653188943862915
1167,814.0,4.653188943862915
1168,678.0,4.653188943862915
1169,996.0,4.653188943862915
1170,832.0,4.653188943862915
1171,694.0,4.653188943862915
1172,882.0,4.653188943862915
1173,844.0,4.653188943862915
1174,700.0,4.653188943862915
1175,626.0,4.653188943862915
1176,605.0,4.653188943862915
1177,581.0,4.653188943862915
1178,571.0,4.653188943862915
1179,562.0,4.653188943862915
1180,559.0,4.653188943862915
1181,560.0,4.653188943862915
1182,531.0,4.653188943862915
1183,543.0,4.653188943862915
1184,549.0,4.653188943862915
1185,552.0,4.653188943862915
1186,554.0,4.653188943862915
1187,556.0,4.653188943862915
1188,552.0,4.653188943862915
1189,555.0,4.653188943862915
1190,555.0,4.653188943862915
1191,555.0,4.653188943862915
1192,556.0,4.653188943862915
1193,555.0,4.653188943862915
1194,555.0,4.653188943862915
1195,557.0,4.653188943862915
1196,556.0,4.653188943862915
1197,556.0,4.653188943862915
1198,559.0,4.653188943862915
1199,559.0,4.653188943862915
1200,556.0,4.653188943862915
1201,557.0,4.653188943862915
1202,558.0,4.653188943862915
1203,559.0,4.653188943862915
1204,556.0,4.653188943862915
1205,554.0,4.653188943862915
1206,560.0,4.653188943862915
1207,557.0,4.653188943862915
1208,557.0,4.653188943862915
1209,560.0,4.653188943862915
1210,560.0,4.653188943862915
1211,557.0,4.653188943862915
1212,556.0,4.653188943862915
1213,557.0,4.657209873199463
1214,560.0,4.660305023193359
1215,557.0,4.660305023193359
1216,557.0,4.668818950653076
1217,560.0,4.668818950653076
1218,558.0,4.668818950653076
1219,557.0,4.683822870254517
1220,559.0,4.683822870254517
1221,560.0,4.683822870254517
1222,556.0,4.69945216178894
1223,557.0,4.69945216178894
1224,559.0,4.69945216178894
1225,558.0,4.71507716178894
1226,556.0,4.71507716178894
1227,557.0,4.71507716178894
1228,560.0,4.73070216178894
1229,558.0,4.73070216178894
1230,558.0,4.73070216178894
1231,560.0,4.7463274002075195
1232,560.0,4.7463274002075195
1233,559.0,4.7463274002075195
1234,559.0,4.7619524002075195
1235,559.0,4.768955707550049
1236,559.0,4.768955707550049
1237,560.0,4.7779600620269775
1238,559.0,4.7779600620269775
1239,559.0,4.7779600620269775
1240,557.0,4.793590068817139
1241,556.0,4.793590068817139
1242,558.0,4.793590068817139
1243,558.0,4.809215068817139
1244,558.0,4.809215068817139
1245,559.0,4.809215068817139
1246,558.0,4.824840307235718
1247,557.0,4.824840307235718
1248,559.0,4.824840307235718
1249,561.0,4.840465068817139
1250,558.0,4.840465068817139
1251,514.0,4.840465068817139
1252,500.0,4.856090784072876
1253,520.0,4.856090784072876
1254,495.0,4.869094133377075
1255,480.0,4.872097015380859
1256,509.0,4.872097015380859
1257,498.0,4.872097015380859
1258,483.0,4.890372037887573
1259,506.0,4.8943750858306885
1260,506.0,4.8943750858306885
1261,482.0,4.8943750858306885
1262,499.0,4.8943750858306885
1263,508.0,4.8943750858306885
1264,483.0,4.8943750858306885
1265,487.0,4.8943750858306885
1266,498.0,4.8943750858306885
1267,476.0,4.8943750858306885
1268,471.0,4.8943750858306885
1269,490.0,4.8943750858306885
1270,478.0,4.8943750858306885
1271,469.0,4.8943750858306885
1272,495.0,4.8943750858306885
1273,486.0,4.8943750858306885
1274,477.0,4.8943750858306885
1275,502.0,4.8943750858306885
1276,502.0,4.8943750858306885
1277,483.0,4.8943750858306885
1278,501.0,4.8943750858306885
1279,510.0,4.8943750858306885
1280,485.0,4.8943750858306885
1281,495.0,4.8943750858306885
1282,510.0,4.8943750858306885
1283,485.0,4.8943750858306885
1284,483.0,4.8943750858306885
1285,507.0,4.8943750858306885
1286,493.0,4.8943750858306885
1287,480.0,4.8943750858306885
1288,509.0,4.8943750858306885
1289,499.0,4.8943750858306885
1290,484.0,4.8978776931762695
1291,507.0,4.9010186195373535
1292,508.0,4.9010186195373535
1293,486.0,4.90204119682312
1294,502.0,4.90204119682312
1295,512.0,4.90204119682312
1296,489.0,4.917045593261719
1297,497.0,4.917045593261719
1298,513.0,4.917045593261719
1299,494.0,4.932675123214722
1300,486.0,4.932675123214722
1301,512.0,4.932675123214722
1302,497.0,4.94830060005188
1303,486.0,4.94830060005188
1304,513.0,4.94830060005188
1305,506.0,4.963925123214722
1306,495.0,4.963925123214722
1307,516.0,4.963925123214722
1308,519.0,4.979551076889038
1309,499.0,4.979551076889038
1310,520.0,4.979551076889038
1311,526.0,4.99517560005188
1312,502.0,5.002179384231567
1313,513.0,5.002179384231567
1314,526.0,5.011183023452759
1315,504.0,5.011183023452759
1316,496.0,5.011183023452759
1317,528.0,5.02681303024292
1318,512.0,5.02681303024292
1319,498.0,5.02681303024292
1320,529.0,5.042437314987183
1321,526.0,5.042437314987183
1322,512.0,5.042437314987183
1323,541.0,5.0580620765686035
1324,553.0,5.0580620765686035
1325,528.0,5.0580620765686035
1326,542.0,5.073687314987183
1327,556.0,5.073687314987183
1328,534.0,5.073687314987183
1329,485.0,5.089312791824341
1330,525.0,5.089312791824341
1331,533.0,5.10231614112854
1332,525.0,5.105345964431763
1333,560.0,5.105345964431763
1334,561.0,5.105345964431763
1335,559.0,5.120975732803345
1336,494.0,5.120975732803345
1337,550.0,5.120975732803345
1338,564.0,5.136600494384766
1339,517.0,5.136600494384766
1340,602.0,5.136600494384766
1341,601.0,5.152225732803345
1342,519.0,5.152225732803345
1343,627.0,5.152225732803345
1344,633.0,5.167849779129028
1345,509.0,5.167849779129028
1346,616.0,5.167849779129028
1347,643.0,5.183475017547607
1348,583.0,5.183475017547607
1349,619.0,5.183475017547607
1350,676.0,5.1991002559661865
1351,730.0,5.1991002559661865
1352,858.0,5.1991002559661865
1353,714.0,5.211604595184326
1354,633.0,5.211604595184326
1355,924.0,5.211604595184326
1356,758.0,5.227234125137329
1357,650.0,5.227234125137329
1358,968.0,5.227234125137329
1359,801.0,5.244448661804199
1360,677.0,5.248452425003052
1361,986.0,5.248452425003052
1362,877.0,5.248452425003052
1363,717.0,5.248452425003052
1364,783.0,5.248452425003052
1365,872.0,5.248452425003052
1366,714.0,5.248452425003052
1367,636.0,5.248452425003052
1368,929.0,5.248452425003052
1369,744.0,5.248452425003052
1370,649.0,5.24945592880249
1371,976.0,5.24945592880249
1372,786.0,5.24945592880249
1373,665.0,5.24945592880249
1374,1024.0,5.24945592880249
1375,810.0,5.24945592880249
1376,676.0,5.24945592880249
1377,1024.0,5.24945592880249
1378,805.0,5.265081167221069
1379,679.0,5.265081167221069
1380,992.0,5.265081167221069
1381,816.0,5.280707120895386
1382,685.0,5.280707120895386
1383,963.0,5.280707120895386
1384,859.0,5.296340703964233
1385,705.0,5.296340703964233
1386,753.0,5.296340703964233
1387,932.0,5.3119566440582275
1388,746.0,5.3119566440582275
1389,653.0,5.3119566440582275
1390,991.0,5.3209593296051025
1391,776.0,5.3209593296051025
1392,665.0,5.3209593296051025
1393,1024.0,5.336632490158081
1394,780.0,5.336632490158081
1395,668.0,5.336632490158081
1396,860.0,5.352262258529663
1397,720.0,5.352262258529663
1398,639.0,5.352262258529663
1399,977.0,5.367886781692505
1400,811.0,5.367886781692505
1401,681.0,5.367886781692505
1402,1024.0,5.383511781692505
1403,877.0,5.383511781692505
1404,718.0,5.383511781692505
1405,866.0,5.3991379737854
1406,777.0,5.3991379737854
1407,664.0,5.3991379737854
1408,693.0,5.402155160903931
1409,868.0,5.402155160903931
1410,724.0,5.402155160903931
1411,639.0,5.417808771133423
1412,1024.0,5.417808771133423
1413,777.0,5.417808771133423
1414,661.0,5.43342137336731
1415,857.0,5.43342137336731
1416,714.0,5.43342137336731
1417,634.0,5.44904637336731
1418,948.0,5.44904637336731
1419,770.0,5.44904637336731
1420,666.0,5.464670896530151
1421,1024.0,5.464670896530151
1422,819.0,5.464670896530151
1423,676.0,5.464670896530151
1424,862.0,5.464670896530151
1425,737.0,5.464670896530151
1426,643.0,5.468174457550049
1427,798.0,5.468174457550049
1428,726.0,5.468174457550049
1429,638.0,5.480677366256714
1430,673.0,5.480677366256714
1431,905.0,5.480677366256714
1432,735.0,5.496306419372559
1433,644.0,5.496306419372559
1434,942.0,5.496306419372559
1435,756.0,5.511931419372559
1436,658.0,5.511931419372559
1437,984.0,5.511931419372559
1438,794.0,5.527556419372559
1439,670.0,5.527556419372559
1440,1024.0,5.527556419372559
1441,807.0,5.543181419372559
1442,669.0,5.543181419372559
1443,1024.0,5.543181419372559
1444,819.0,5.543181419372559
1445,682.0,5.552684545516968
1446,1024.0,5.559211015701294
1447,826.0,5.559211015701294
1448,682.0,5.559211015701294
1449,1024.0,5.574859380722046
1450,826.0,5.574859380722046
1451,684.0,5.574859380722046
1452,1024.0,5.590472221374512
1453,838.0,5.590472221374512
1454,697.0,5.590472221374512
1455,1024.0,5.606097459793091
1456,842.0,5.606097459793091
1457,693.0,5.606097459793091
1458,1024.0,5.606097459793091
1459,818.0,5.606097459793091
1460,678.0,5.621752738952637
1461,1024.0,5.626068592071533
1462,816.0,5.629558801651001
1463,685.0,5.635064125061035
1464,1024.0,5.635064125061035
1465,823.0,5.6450700759887695
1466,681.0,5.6450700759887695
1467,1024.0,5.6450700759887695
1468,831.0,5.660699844360352
1469,687.0,5.660699844360352
1470,931.0,5.660699844360352
1471,788.0,5.660699844360352
1472,667.0,5.660699844360352
1473,897.0,5.660699844360352
1474,849.0,5.660699844360352
1475,700.0,5.660699844360352
1476,663.0,5.660699844360352
1477,924.0,5.660699844360352
1478,745.0,5.660699844360352
1479,649.0,5.660699844360352
1480,896.0,5.660699844360352
1481,736.0,5.660699844360352
1482,643.0,5.672703981399536
1483,1024.0,5.6767072677612305
1484,786.0,5.6767072677612305
1485,668.0,5.6767072677612305
1486,1004.0,5.6767072677612305
1487,772.0,5.6767072677612305
1488,661.0,5.692332029342651
1489,931.0,5.692332029342651
1490,762.0,5.692332029342651
1491,657.0,5.7079572677612305
1492,1024.0,5.7079572677612305
1493,831.0,5.7079572677612305
1494,692.0,5.72358250617981
1495,1022.0,5.72358250617981
1496,816.0,5.72358250617981
1497,675.0,5.739207029342651
1498,951.0,5.739207029342651
1499,806.0,5.739207029342651
1500,677.0,5.757349967956543
1501,880.0,5.757349967956543
1502,855.0,5.757349967956543
1503,706.0,5.770870685577393
1504,643.0,5.770870685577393
1505,895.0,5.770870685577393
1506,733.0,5.7865235805511475
1507,645.0,5.7865235805511475
1508,964.0,5.7865235805511475
1509,771.0,5.8021509647369385
1510,666.0,5.8021509647369385
1511,979.0,5.8021509647369385
1512,798.0,5.81775975227356
1513,673.0,5.81775975227356
1514,997.0,5.81775975227356
1515,836.0,5.833383798599243
1516,691.0,5.833383798599243
1517,906.0,5.833383798599243
1518,881.0,5.849022388458252
1519,715.0,5.849022388458252
1520,642.0,5.849022388458252
1521,909.0,5.856525421142578
1522,745.0,5.856525421142578
1523,648.0,5.856525421142578
1524,962.0,5.8722007274627686
1525,771.0,5.8722007274627686
1526,662.0,5.8722007274627686
1527,976.0,5.887779951095581
1528,797.0,5.887779951095581
1529,674.0,5.887779951095581
1530,996.0,5.903404474258423
1531,840.0,5.903404474258423
1532,698.0,5.903404474258423
1533,896.0,5.919030427932739
1534,883.0,5.919030427932739
1535,718.0,5.919030427932739
1536,644.0,5.934654474258423
1537,918.0,5.934654474258423
1538,740.0,5.934654474258423
1539,651.0,5.950660705566406
1540,999.0,5.950660705566406
1541,790.0,5.950660705566406
1542,670.0,5.966290712356567
1543,990.0,5.966290712356567
1544,802.0,5.966290712356567
1545,673.0,5.98191499710083
1546,940.0,5.98191499710083
1547,805.0,5.98191499710083
1548,677.0,5.99753999710083
1549,889.0,5.99753999710083
1550,909.0,5.99753999710083
1551,733.0,6.013182163238525
1552,640.0,6.013182163238525
1553,896.0,6.013182163238525
1554,730.0,6.0287909507751465
1555,641.0,6.0287909507751465
1556,921.0,6.0287909507751465
1557,751.0,6.04441499710083
1558,650.0,6.049418210983276
1559,962.0,6.049418210983276
1560,790.0,6.061251640319824
1561,672.0,6.0657031536102295
1562,964.0,6.067210912704468
1563,829.0,6.067210912704468
1564,690.0,6.067210912704468
1565,830.0,6.082835912704468
1566,821.0,6.082835912704468
1567,687.0,6.082835912704468
1568,616.0,6.098461627960205
1569,894.0,6.098461627960205
1570,736.0,6.098461627960205
1571,648.0,6.114085674285889
1572,936.0,6.114085674285889
1573,758.0,6.114085674285889
1574,657.0,6.129710912704468
1575,1005.0,6.129710912704468
1576,780.0,6.129710912704468
1577,667.0,6.1478517055511475
1578,1006.0,6.1478517055511475
1579,782.0,6.1478517055511475
1580,664.0,6.1478517055511475
1581,1024.0,6.1478517055511475
1582,818.0,6.163498878479004
1583,685.0,6.163498878479004
1584,1000.0,6.163498878479004
1585,774.0,6.179139614105225
1586,665.0,6.179139614105225
1587,979.0,6.179139614105225
1588,798.0,6.194764852523804
1589,676.0,6.194764852523804
1590,986.0,6.194764852523804
1591,846.0,6.210358142852783
1592,700.0,6.210358142852783
1593,848.0,6.210358142852783
1594,878.0,6.226016521453857
1595,713.0,6.226016521453857
1596,625.0,6.234538555145264
1597,903.0,6.2420759201049805
1598,742.0,6.2420759201049805
1599,646.0,6.2420759201049805
1600,921.0,6.257739543914795
1601,754.0,6.257739543914795
1602,650.0,6.257739543914795
1603,921.0,6.273364305496216
1604,768.0,6.273364305496216
1605,662.0,6.273364305496216
1606,1013.0,6.288998365402222
1607,838.0,6.288998365402222
1608,693.0,6.288998365402222
1609,977.0,6.304614782333374
1610,843.0,6.304614782333374
1611,696.0,6.304614782333374
1612,843.0,6.32020902633667
1613,878.0,6.32020902633667
1614,716.0,6.32020902633667
1615,627.0,6.336254119873047
1616,933.0,6.336254119873047
1617,763.0,6.336254119873047
1618,654.0,6.351920127868652
1619,985.0,6.351920127868652
1620,789.0,6.351920127868652
1621,670.0,6.367542505264282
1622,1011.0,6.367542505264282
1623,787.0,6.367542505264282
1624,667.0,6.383167743682861
1625,1009.0,6.383167743682861
1626,783.0,6.383167743682861
1627,669.0,6.398798704147339
1628,1024.0,6.398798704147339
1629,795.0,6.398798704147339
1630,676.0,6.398798704147339
1631,981.0,6.398798704147339
1632,799.0,6.398798704147339
1633,672.0,6.398798704147339
1634,855.0,6.398798704147339
1635,744.0,6.398798704147339
1636,646.0,6.398798704147339
1637,806.0,6.398798704147339
1638,886.0,6.398798704147339
1639,723.0,6.398798704147339
1640,633.0,6.398798704147339
1641,994.0,6.398798704147339
1642,780.0,6.398798704147339
1643,667.0,6.398798704147339
1644,1024.0,6.398798704147339
1645,773.0,6.398798704147339
1646,667.0,6.398798704147339
1647,1024.0,6.398798704147339
1648,774.0,6.398798704147339
1649,665.0,6.398798704147339
1650,1024.0,6.414423942565918
1651,785.0,6.414423942565918
1652,669.0,6.425427675247192
1653,1024.0,6.430430889129639
1654,773.0,6.430430889129639
1655,666.0,6.430430889129639
1656,1009.0,6.4460601806640625
1657,768.0,6.4460601806640625
1658,664.0,6.4460601806640625
1659,904.0,6.464713096618652
1660,746.0,6.469334840774536
1661,650.0,6.469334840774536
1662,1024.0,6.469334840774536
1663,817.0,6.484971761703491
1664,685.0,6.484971761703491
1665,987.0,6.484971761703491
1666,809.0,6.500585317611694
1667,669.0,6.500585317611694
1668,926.0,6.500585317611694
1669,816.0,6.5162270069122314
1670,684.0,6.5162270069122314
1671,780.0,6.524733304977417
1672,922.0,6.532236337661743
1673,744.0,6.532236337661743
1674,649.0,6.532236337661743
1675,964.0,6.547865629196167
1676,766.0,6.547865629196167
1677,662.0,6.547865629196167
1678,937.0,6.563490629196167
1679,762.0,6.563490629196167
1680,657.0,6.563490629196167
1681,963.0,6.579115390777588
1682,794.0,6.579115390777588
1683,668.0,6.579115390777588
1684,792.0,6.594740390777588
1685,705.0,6.594740390777588
1686,621.0,6.594740390777588
1687,722.0,6.610365390777588
1688,823.0,6.610365390777588
1689,685.0,6.610365390777588
1690,618.0,6.626412630081177
1691,939.0,6.626412630081177
1692,769.0,6.626412630081177
1693,661.0,6.642042398452759
1694,992.0,6.642042398452759
1695,797.0,6.642042398452759
1696,675.0,6.657667636871338
1697,1024.0,6.657667636871338
1698,826.0,6.657667636871338
1699,687.0,6.673292398452759
1700,1024.0,6.673292398452759
1701,799.0,6.673292398452759
1702,675.0,6.688916921615601
1703,994.0,6.688916921615601
1704,812.0,6.688916921615601
1705,675.0,6.704541921615601
1706,1024.0,6.704541921615601
1707,874.0,6.704541921615601
1708,715.0,6.720166921615601
1709,957.0,6.725170373916626
1710,845.0,6.725170373916626
1711,699.0,6.736173629760742
1712,752.0,6.736173629760742
1713,905.0,6.736173629760742
1714,732.0,6.751802921295166
1715,641.0,6.751802921295166
1716,989.0,6.751802921295166
1717,778.0,6.767427921295166
1718,666.0,6.767427921295166
1719,1017.0,6.767427921295166
1720,771.0,6.783052444458008
1721,666.0,6.783052444458008
1722,1024.0,6.783052444458008
1723,776.0,6.783052444458008
1724,666.0,6.783052444458008
1725,990.0,6.7986907958984375
1726,794.0,6.7986907958984375
1727,672.0,6.7986907958984375
1728,1024.0,6.7986907958984375
1729,823.0,6.7986907958984375
1730,686.0,6.7986907958984375
1731,1003.0,6.814319849014282
1732,793.0,6.814319849014282
1733,672.0,6.814319849014282
1734,976.0,6.82994532585144
1735,807.0,6.82994532585144
1736,675.0,6.82994532585144
1737,982.0,6.845570087432861
1738,891.0,6.845570087432861
1739,724.0,6.845570087432861
1740,726.0,6.8612282276153564
1741,913.0,6.8612282276153564
1742,736.0,6.8612282276153564
1743,644.0,6.876820087432861
1744,977.0,6.876820087432861
1745,774.0,6.876820087432861
1746,663.0,6.893967866897583
1747,986.0,6.893967866897583
1748,795.0,6.893967866897583
1749,677.0,6.9084858894348145
1750,1010.0,6.9084858894348145
1751,801.0,6.9084858894348145
1752,675.0,6.924121856689453
1753,967.0,6.924121856689453
1754,805.0,6.924121856689453
1755,677.0,6.939758062362671
1756,982.0,6.939758062362671
1757,902.0,6.939758062362671
1758,728.0,6.957101345062256
1759,720.0,6.961118459701538
1760,876.0,6.961118459701538
1761,720.0,6.961118459701538
1762,638.0,6.961118459701538
1763,918.0,6.961118459701538
1764,745.0,6.961118459701538
1765,651.0,6.97562313079834
1766,988.0,6.977127313613892
1767,794.0,6.977127313613892
1768,673.0,6.977127313613892
1769,996.0,6.9927568435668945
1770,821.0,6.9927568435668945
1771,682.0,6.9927568435668945
1772,973.0,7.008381605148315
1773,886.0,7.008381605148315
1774,723.0,7.008381605148315
1775,710.0,7.024007081985474
1776,926.0,7.024007081985474
1777,745.0,7.024007081985474
1778,651.0,7.039631605148315
1779,945.0,7.039631605148315
1780,754.0,7.039631605148315
1781,653.0,7.0552568435668945
1782,967.0,7.0552568435668945
1783,786.0,7.0552568435668945
1784,663.0,7.070881605148315
1785,988.0,7.075884580612183
1786,825.0,7.075884580612183
1787,685.0,7.086888313293457
1788,809.0,7.086888313293457
1789,736.0,7.086888313293457
1790,642.0,7.102517604827881
1791,660.0,7.102517604827881
1792,879.0,7.102517604827881
1793,723.0,7.11814284324646
1794,643.0,7.11814284324646
1795,984.0,7.11814284324646
1796,778.0,7.133768081665039
1797,672.0,7.133768081665039
1798,1015.0,7.133768081665039
1799,775.0,7.14939284324646
1800,664.0,7.14939284324646
1801,1011.0,7.14939284324646
1802,772.0,7.14939284324646
1803,663.0,7.14939284324646
1804,1015.0,7.14939284324646
1805,773.0,7.14939284324646
1806,664.0,7.14939284324646
1807,1024.0,7.165021896362305
1808,781.0,7.165021896362305
1809,667.0,7.165021896362305
1810,998.0,7.180647134780884
1811,799.0,7.180647134780884
1812,676.0,7.180647134780884
1813,1004.0,7.196272373199463
1814,800.0,7.196272373199463
1815,678.0,7.196272373199463
1816,975.0,7.211897373199463
1817,818.0,7.211897373199463
1818,687.0,7.211897373199463
1819,932.0,7.227521896362305
1820,864.0,7.227521896362305
1821,710.0,7.227521896362305
1822,661.0,7.244670391082764
1823,914.0,7.244670391082764
1824,739.0,7.244670391082764
1825,649.0,7.259175062179565
1826,924.0,7.259175062179565
1827,749.0,7.259175062179565
1828,653.0,7.274805068969727
1829,1005.0,7.274805068969727
1830,776.0,7.274805068969727
1831,665.0,7.29042911529541
1832,981.0,7.29042911529541
1833,793.0,7.29042911529541
1834,675.0,7.30605411529541
1835,994.0,7.30605411529541
1836,828.0,7.30605411529541
1837,689.0,7.3216798305511475
1838,912.0,7.3216798305511475
1839,860.0,7.3216798305511475
1840,706.0,7.337304592132568
1841,656.0,7.3448076248168945
1842,865.0,7.3448076248168945
1843,715.0,7.353323459625244
1844,634.0,7.353323459625244
1845,945.0,7.353323459625244
1846,764.0,7.368960618972778
1847,658.0,7.368960618972778
1848,1024.0,7.368960618972778
1849,802.0,7.384585857391357
1850,680.0,7.384585857391357
1851,1001.0,7.384585857391357
1852,776.0,7.384585857391357
1853,663.0,7.384585857391357
1854,991.0,7.40023136138916
1855,800.0,7.40023136138916
1856,677.0,7.40023136138916
1857,980.0,7.415844202041626
1858,822.0,7.420015811920166
1859,685.0,7.422799825668335
1860,897.0,7.427303314208984
1861,874.0,7.427303314208984
1862,717.0,7.4378156661987305
1863,642.0,7.4378156661987305
1864,933.0,7.4378156661987305
1865,751.0,7.453450679779053
1866,656.0,7.453450679779053
1867,980.0,7.453450679779053
1868,778.0,7.46908712387085
1869,667.0,7.46908712387085
1870,1010.0,7.46908712387085
1871,774.0,7.484713315963745
1872,666.0,7.484713315963745
1873,982.0,7.484713315963745
1874,794.0,7.500325918197632
1875,673.0,7.500325918197632
1876,977.0,7.500325918197632
1877,821.0,7.515950679779053
1878,687.0,7.515950679779053
1879,902.0,7.527467250823975
1880,884.0,7.531973361968994
1881,717.0,7.531973361968994
1882,641.0,7.531973361968994
1883,931.0,7.547602415084839
1884,747.0,7.547602415084839
1885,651.0,7.547602415084839
1886,969.0,7.563227415084839
1887,776.0,7.563227415084839
1888,664.0,7.563227415084839
1889,864.0,7.578852415084839
1890,730.0,7.578852415084839
1891,637.0,7.578852415084839
1892,978.0,7.59447717666626
1893,835.0,7.59447717666626
1894,693.0,7.59447717666626
1895,927.0,7.610102415084839
1896,921.0,7.610102415084839
1897,739.0,7.610102415084839
1898,645.0,7.627741575241089
1899,912.0,7.627741575241089
1900,739.0,7.627741575241089
1901,645.0,7.641747951507568
1902,957.0,7.641747951507568
1903,773.0,7.641747951507568
1904,666.0,7.657377243041992
1905,1024.0,7.657377243041992
1906,808.0,7.657377243041992
1907,681.0,7.673002004623413
1908,877.0,7.673002004623413
1909,737.0,7.673002004623413
1910,644.0,7.688627004623413
1911,955.0,7.688627004623413
1912,818.0,7.688627004623413
1913,685.0,7.704252243041992
1914,873.0,7.704252243041992
1915,876.0,7.704252243041992
1916,716.0,7.719877481460571
1917,637.0,7.727880954742432
1918,895.0,7.727880954742432
1919,729.0,7.7358856201171875
1920,642.0,7.7358856201171875
1921,942.0,7.7358856201171875
1922,760.0,7.751514434814453
1923,657.0,7.751514434814453
1924,989.0,7.751514434814453
1925,800.0,7.767139673233032
1926,672.0,7.767139673233032
1927,891.0,7.767139673233032
1928,773.0,7.782764434814453
1929,661.0,7.782764434814453
1930,834.0,7.782764434814453
1931,873.0,7.798389434814453
1932,711.0,7.798389434814453
1933,632.0,7.798389434814453
1934,969.0,7.814014434814453
1935,770.0,7.814014434814453
1936,662.0,7.814014434814453
1937,882.0,7.816017150878906
1938,734.0,7.816017150878906
1939,640.0,7.816017150878906
1940,932.0,7.831645727157593
1941,776.0,7.831645727157593
1942,664.0,7.831645727157593
1943,1000.0,7.847270965576172
1944,816.0,7.847270965576172
1945,686.0,7.847270965576172
1946,873.0,7.862895965576172
1947,765.0,7.862895965576172
1948,657.0,7.862895965576172
1949,831.0,7.878520727157593
1950,883.0,7.878520727157593
1951,723.0,7.878520727157593
1952,633.0,7.878520727157593
1953,904.0,7.878520727157593
1954,735.0,7.878520727157593
1955,645.0,7.894146203994751
1956,931.0,7.894146203994751
1957,757.0,7.894146203994751
1958,655.0,7.905649662017822
1959,981.0,7.905649662017822
1960,799.0,7.905649662017822
1961,674.0,7.921278476715088
1962,934.0,7.9262778759002686
1963,804.0,7.927017450332642
1964,674.0,7.927017450332642
1965,844.0,7.927017450332642
1966,893.0,7.942622900009155
1967,723.0,7.942622900009155
1968,631.0,7.942622900009155
1969,943.0,7.958247661590576
1970,752.0,7.958247661590576
1971,654.0,7.958247661590576
1972,957.0,7.973873138427734
1973,773.0,7.973873138427734
1974,658.0,7.973873138427734
1975,847.0,7.98937726020813
1976,728.0,7.98937726020813
1977,630.0,7.98937726020813
1978,939.0,8.005008459091187
1979,830.0,8.005008459091187
1980,688.0,8.005008459091187
1981,854.0,8.020632982254028
1982,902.0,8.020632982254028
1983,733.0,8.020632982254028
1984,639.0,8.036258220672607
1985,849.0,8.036258220672607
1986,703.0,8.036258220672607
1987,634.0,8.051882982254028
1988,996.0,8.051882982254028
1989,793.0,8.051882982254028
1990,674.0,8.067507982254028
1991,991.0,8.067507982254028
1992,805.0,8.067507982254028
1993,679.0,8.083145141601562
1994,1024.0,8.089661359786987
1995,847.0,8.089661359786987
1996,704.0,8.089661359786987
1997,617.0,8.089661359786987
1998,588.0,8.089661359786987
1999,576.0,8.089661359786987
2000,557.0,8.089661359786987
2001,556.0,8.089661359786987
2002,557.0,8.089661359786987
2003,560.0,8.089661359786987
2004,542.0,8.089661359786987
2005,547.0,8.089661359786987
2006,555.0,8.089661359786987
2007,555.0,8.089661359786987
2008,552.0,8.089661359786987
2009,555.0,8.089661359786987
2010,559.0,8.089661359786987
2011,559.0,8.089661359786987
2012,556.0,8.089661359786987
2013,537.0,8.102176427841187
2014,550.0,8.105684518814087
2015,550.0,8.105684518814087
2016,545.0,8.105684518814087
2017,556.0,8.121313333511353
2018,556.0,8.121313333511353
2019,555.0,8.121313333511353
2020,554.0,8.136938571929932
2021,557.0,8.136938571929932
2022,557.0,8.136938571929932
2023,554.0,8.152563333511353
2024,556.0,8.152563333511353
2025,559.0,8.152563333511353
2026,554.0,8.168188571929932
2027,555.0,8.168188571929932
2028,557.0,8.168188571929932
2029,555.0,8.183813333511353
2030,555.0,8.183813333511353
2031,557.0,8.183813333511353
2032,540.0,8.202441930770874
2033,544.0,8.202441930770874
2034,549.0,8.202441930770874
2035,554.0,8.215445280075073
2036,556.0,8.215445280075073
2037,554.0,8.215445280075073
2038,557.0,8.231074571609497
2039,559.0,8.231074571609497
2040,558.0,8.231074571609497
2041,556.0,8.246699333190918
2042,556.0,8.246699333190918
2043,556.0,8.246699333190918
2044,557.0,8.262324094772339
2045,556.0,8.262324094772339
2046,561.0,8.262324094772339
2047,558.0,8.277949094772339
2048,549.0,8.277949094772339
2049,558.0,8.277949094772339
2050,559.0,8.293574333190918
2051,556.0,8.293574333190918
2052,554.0,8.293574333190918
2053,558.0,8.300578355789185
2054,556.0,8.300578355789185
2055,555.0,8.300578355789185
2056,558.0,8.316207647323608
2057,561.0,8.316207647323608
2058,555.0,8.316207647323608
2059,555.0,8.331833124160767
2060,560.0,8.331833124160767
2061,545.0,8.331833124160767
2062,548.0,8.35019063949585
2063,552.0,8.354177713394165
2064,548.0,8.354177713394165
2065,554.0,8.354177713394165
2066,554.0,8.354177713394165
2067,559.0,8.354177713394165
2068,559.0,8.354177713394165
2069,555.0,8.354177713394165
2070,555.0,8.354177713394165
2071,559.0,8.359681129455566
2072,558.0,8.359681129455566
2073,555.0,8.370185613632202
2074,553.0,8.370185613632202
2075,560.0,8.370185613632202
2076,558.0,8.385815143585205
2077,554.0,8.385815143585205
2078,559.0,8.385815143585205
2079,559.0,8.401439905166626
2080,544.0,8.401439905166626
2081,549.0,8.401439905166626
2082,554.0,8.417064666748047
2083,556.0,8.417064666748047
2084,554.0,8.417064666748047
2085,556.0,8.432689666748047
2086,558.0,8.432689666748047
2087,559.0,8.432689666748047
2088,557.0,8.448314666748047
2089,558.0,8.448314666748047
2090,556.0,8.459817886352539
2091,555.0,8.46432089805603
2092,557.0,8.46432089805603
2093,555.0,8.46432089805603
2094,557.0,8.479949951171875
2095,557.0,8.479949951171875
2096,554.0,8.479949951171875
2097,556.0,8.495574951171875
2098,557.0,8.495574951171875
2099,558.0,8.495574951171875
2100,548.0,8.511199951171875
2101,550.0,8.511199951171875
2102,555.0,8.511199951171875
2103,555.0,8.526824951171875
2104,554.0,8.526824951171875
2105,555.0,8.526824951171875
2106,556.0,8.542449951171875
2107,558.0,8.542449951171875
2108,556.0,8.542449951171875
2109,552.0,8.560079336166382
2110,559.0,8.560079336166382
2111,559.0,8.560079336166382
2112,548.0,8.574082374572754
2113,553.0,8.574082374572754
2114,558.0,8.574082374572754
2115,557.0,8.589711427688599
2116,559.0,8.589711427688599
2117,560.0,8.589711427688599
2118,560.0,8.605336666107178
2119,549.0,8.605336666107178
2120,554.0,8.605336666107178
2121,558.0,8.620962142944336
2122,556.0,8.620962142944336
2123,555.0,8.620962142944336
2124,556.0,8.636586904525757
2125,556.0,8.636586904525757
2126,558.0,8.636586904525757
2127,555.0,8.652211427688599
2128,550.0,8.660240173339844
2129,558.0,8.660240173339844
2130,556.0,8.66824746131897
2131,557.0,8.66824746131897
2132,558.0,8.66824746131897
2133,557.0,8.683876514434814
2134,556.0,8.683876514434814
2135,556.0,8.683876514434814
2136,558.0,8.699501037597656
2137,558.0,8.699501037597656
2138,556.0,8.699501037597656
2139,558.0,8.715126276016235
2140,558.0,8.715126276016235
2141,554.0,8.715126276016235
2142,557.0,8.730751037597656
2143,557.0,8.730751037597656
2144,555.0,8.730751037597656
2145,558.0,8.746376276016235
2146,558.0,8.746376276016235
2147,559.0,8.746376276016235
2148,558.0,8.748390197753906
2149,559.0,8.748390197753906
2150,559.0,8.748390197753906
2151,557.0,8.764036893844604
2152,556.0,8.764036893844604
2153,559.0,8.764036893844604
2154,559.0,8.77966046333313
2155,556.0,8.77966046333313
2156,559.0,8.77966046333313
2157,556.0,8.79527497291565
2158,556.0,8.79527497291565
2159,556.0,8.79527497291565
2160,556.0,8.810911417007446
2161,559.0,8.810911417007446
2162,555.0,8.810911417007446
2163,555.0,8.828248262405396
2164,559.0,8.831575870513916
2165,557.0,8.831575870513916
2166,557.0,8.831575870513916
2167,556.0,8.842580080032349
2168,559.0,8.842580080032349
2169,557.0,8.842580080032349
2170,556.0,8.842580080032349
2171,559.0,8.842580080032349
2172,559.0,8.842580080032349
2173,552.0,8.842580080032349
2174,555.0,8.842580080032349
2175,558.0,8.842580080032349
2176,555.0,8.842580080032349
2177,552.0,8.842580080032349
2178,554.0,8.842580080032349
2179,557.0,8.842580080032349
2180,555.0,8.842580080032349
2181,555.0,8.842580080032349
2182,559.0,8.842580080032349
2183,559.0,8.842580080032349
2184,557.0,8.842580080032349
2185,557.0,8.842580080032349
2186,556.0,8.845094919204712
2187,559.0,8.845094919204712
2188,556.0,8.845094919204712
2189,555.0,8.845094919204712
2190,558.0,8.845094919204712
2191,557.0,8.845094919204712
2192,556.0,8.845094919204712
2193,558.0,8.845094919204712
2194,557.0,8.845094919204712
2195,557.0,8.845094919204712
2196,558.0,8.845094919204712
2197,557.0,8.845094919204712
2198,557.0,8.845094919204712
2199,558.0,8.845094919204712
2200,559.0,8.845094919204712
2201,558.0,8.845094919204712
2202,550.0,8.845094919204712
2203,556.0,8.845094919204712
2204,558.0,8.845094919204712
2205,554.0,8.85359811782837
2206,555.0,8.85359811782837
2207,557.0,8.861101865768433
2208,557.0,8.861101865768433
2209,557.0,8.861101865768433
2210,558.0,8.876731157302856
2211,559.0,8.876731157302856
2212,557.0,8.876731157302856
2213,556.0,8.892356157302856
2214,559.0,8.892356157302856
2215,559.0,8.892356157302856
2216,557.0,8.907980680465698
2217,556.0,8.907980680465698
2218,560.0,8.907980680465698
2219,557.0,8.923606157302856
2220,557.0,8.923606157302856
2221,559.0,8.923606157302856
2222,560.0,8.939231157302856
2223,555.0,8.939231157302856
2224,556.0,8.939231157302856
2225,561.0,8.940734148025513
2226,560.0,8.940734148025513
2227,557.0,8.940734148025513
2228,556.0,8.956363201141357
2229,559.0,8.956363201141357
2230,560.0,8.956363201141357
2231,556.0,8.971988201141357
2232,560.0,8.971988201141357
2233,560.0,8.971988201141357
2234,556.0,8.987613439559937
2235,557.0,8.987613439559937
2236,559.0,8.987613439559937
2237,558.0,9.003237962722778
2238,557.0,9.003237962722778
2239,557.0,9.003237962722778
2240,559.0,9.018862962722778
2241,558.0,9.018862962722778
2242,557.0,9.018862962722778
2243,557.0,9.034487962722778
2244,558.0,9.039491415023804
2245,556.0,9.039491415023804
2246,558.0,9.05049467086792
2247,559.0,9.05049467086792
2248,558.0,9.05049467086792
2249,557.0,9.066123962402344
2250,560.0,9.066123962402344
2251,558.0,9.066123962402344
2252,557.0,9.081748723983765
2253,549.0,9.081748723983765
2254,556.0,9.081748723983765
2255,555.0,9.097373962402344
2256,556.0,9.097373962402344
2257,558.0,9.097373962402344
2258,556.0,9.112998723983765
2259,557.0,9.112998723983765
2260,558.0,9.112998723983765
2261,558.0,9.128623485565186
2262,558.0,9.128623485565186
2263,556.0,9.13962697982788
2264,558.0,9.146400451660156
2265,561.0,9.15115737915039
2266,558.0,9.151802062988281
2267,558.0,9.151802062988281
2268,560.0,9.151802062988281
2269,557.0,9.167402982711792
2270,557.0,9.167402982711792
2271,558.0,9.167402982711792
2272,559.0,9.183027744293213
2273,556.0,9.183027744293213
2274,556.0,9.183027744293213
2275,559.0,9.198652267456055
2276,561.0,9.198652267456055
2277,556.0,9.198652267456055
2278,556.0,9.214277982711792
2279,560.0,9.214277982711792
2280,560.0,9.214277982711792
2281,557.0,9.22990345954895
2282,557.0,9.237407445907593
2283,560.0,9.237407445907593
2284,557.0,9.245928049087524
2285,557.0,9.245928049087524
2286,559.0,9.245928049087524
2287,559.0,9.261563777923584
2288,557.0,9.261563777923584
2289,557.0,9.261563777923584
2290,558.0,9.277188777923584
2291,559.0,9.277188777923584
2292,557.0,9.277188777923584
2293,558.0,9.29283094406128
2294,559.0,9.29283094406128
2295,558.0,9.29283094406128
2296,558.0,9.308439493179321
2297,560.0,9.308439493179321
2298,559.0,9.308439493179321
2299,557.0,9.324063777923584
2300,558.0,9.324063777923584
2301,559.0,9.337580919265747
2302,558.0,9.340088367462158
2303,558.0,9.340088367462158
2304,559.0,9.340088367462158
2305,558.0,9.355735540390015
2306,556.0,9.355735540390015
2307,557.0,9.355735540390015
2308,560.0,9.37134313583374
2309,557.0,9.37134313583374
2310,558.0,9.37134313583374
2311,560.0,9.387006521224976
2312,558.0,9.387006521224976
2313,557.0,9.387006521224976
2314,558.0,9.402658224105835
2315,559.0,9.402658224105835
2316,557.0,9.402658224105835
2317,556.0,9.418261289596558
2318,559.0,9.418261289596558
2319,559.0,9.418261289596558
2320,557.0,9.433886051177979
2321,557.0,9.433886051177979
2322,558.0,9.433886051177979
2323,557.0,9.445902347564697
2324,558.0,9.445902347564697
2325,559.0,9.445902347564697
2326,559.0,9.461537837982178
2327,558.0,9.461537837982178
2328,557.0,9.461537837982178
2329,560.0,9.477173805236816
2330,560.0,9.477173805236816
2331,557.0,9.477173805236816
2332,556.0,9.492799997329712
2333,557.0,9.492799997329712
2334,556.0,9.492799997329712
2335,555.0,9.508412599563599
2336,559.0,9.508412599563599
2337,555.0,9.508412599563599
2338,552.0,9.524064779281616
2339,556.0,9.524064779281616
2340,558.0,9.534069299697876
2341,558.0,9.540072679519653
2342,555.0,9.540072679519653
2343,557.0,9.540072679519653
2344,559.0,9.555701971054077
2345,558.0,9.555701971054077
2346,558.0,9.555701971054077
2347,561.0,9.571326732635498
2348,559.0,9.571326732635498
2349,555.0,9.571326732635498
2350,558.0,9.586951971054077
2351,559.0,9.586951971054077
2352,558.0,9.586951971054077
2353,553.0,9.602576494216919
2354,556.0,9.602576494216919
2355,556.0,9.602576494216919
2356,557.0,9.618201732635498
2357,558.0,9.618201732635498
2358,559.0,9.618201732635498
2359,557.0,9.634330987930298
2360,556.0,9.634330987930298
2361,559.0,9.634330987930298
2362,559.0,9.649834394454956
2363,557.0,9.649834394454956
2364,558.0,9.649834394454956
2365,559.0,9.6654634475708
2366,557.0,9.6654634475708
2367,557.0,9.6654634475708
2368,560.0,9.682582378387451
2369,559.0,9.686792612075806
2370,556.0,9.686792612075806
2371,557.0,9.686792612075806
2372,561.0,9.702418327331543
2373,557.0,9.702418327331543
2374,557.0,9.702418327331543
2375,559.0,9.718042612075806
2376,560.0,9.718042612075806
2377,556.0,9.718042612075806
2378,559.0,9.733545780181885
2379,559.0,9.733545780181885
2380,561.0,9.733545780181885
2381,557.0,9.749175548553467
2382,557.0,9.749175548553467
2383,559.0,9.749175548553467
2384,558.0,9.764800310134888
2385,557.0,9.764800310134888
2386,559.0,9.764800310134888
2387,559.0,9.78042483329773
2388,557.0,9.78042483329773
2389,556.0,9.78042483329773
2390,561.0,9.796050310134888
2391,560.0,9.796050310134888
2392,557.0,9.796050310134888
2393,557.0,9.811675071716309
2394,560.0,9.811675071716309
2395,559.0,9.811675071716309
2396,513.0,9.827301025390625
2397,489.0,9.827301025390625
2398,513.0,9.827301025390625
2399,490.0,9.83680510520935
2400,473.0,9.83680510520935
2401,500.0,9.83680510520935
2402,490.0,9.852448463439941
2403,468.0,9.852448463439941
2404,487.0,9.852448463439941
2405,494.0,9.868071794509888
2406,462.0,9.868071794509888
2407,475.0,9.868071794509888
2408,484.0,9.883701801300049
2409,456.0,9.883701801300049
2410,456.0,9.883701801300049
2411,477.0,9.899323225021362
2412,453.0,9.899323225021362
2413,441.0,9.899323225021362
2414,469.0,9.914945840835571
2415,453.0,9.914945840835571
2416,439.0,9.914945840835571
2417,464.0,9.927451372146606
2418,459.0,9.927451372146606
2419,441.0,9.927451372146606
2420,459.0,9.927451372146606
2421,462.0,9.927451372146606
2422,435.0,9.927451372146606
2423,445.0,9.927451372146606
2424,452.0,9.927451372146606
2425,429.0,9.927451372146606
2426,432.0,9.927451372146606
2427,447.0,9.927451372146606
2428,425.0,9.927451372146606
2429,417.0,9.927451372146606
2430,450.0,9.927451372146606
2431,434.0,9.927451372146606
2432,424.0,9.927451372146606
2433,457.0,9.927451372146606
2434,456.0,9.927451372146606
2435,441.0,9.927451372146606
2436,462.0,9.930454730987549
2437,468.0,9.930454730987549
2438,438.0,9.930454730987549
2439,448.0,9.930454730987549
2440,458.0,9.930454730987549
2441,430.0,9.930454730987549
2442,429.0,9.930454730987549
2443,445.0,9.930454730987549
2444,427.0,9.930454730987549
2445,415.0,9.930454730987549
2446,440.0,9.930454730987549
2447,427.0,9.930454730987549
2448,417.0,9.930454730987549
2449,439.0,9.930454730987549
2450,429.0,9.930454730987549
2451,403.0,9.930454730987549
2452,403.0,9.930454730987549
2453,391.0,9.930454730987549
2454,360.0,9.930454730987549
2455,401.0,9.939457893371582
2456,470.0,9.939457893371582
2457,463.0,9.939457893371582
2458,476.0,9.939457893371582
2459,505.0,9.939457893371582
2460,494.0,9.939457893371582
2461,485.0,9.939457893371582
2462,495.0,9.939457893371582
2463,461.0,9.939457893371582
2464,439.0,9.939457893371582
2465,452.0,9.939457893371582
2466,439.0,9.939457893371582
2467,417.0,9.939457893371582
2468,436.0,9.939457893371582
2469,433.0,9.943086862564087
2470,403.0,9.944438934326172
2471,413.0,9.944438934326172
2472,420.0,9.944438934326172
2473,394.0,9.960064172744751
2474,394.0,9.960064172744751
2475,411.0,9.960064172744751
2476,393.0,9.967067956924438
2477,389.0,9.967067956924438
2478,413.0,9.967067956924438
2479,401.0,9.982697248458862
2480,393.0,9.982697248458862
2481,413.0,9.982697248458862
2482,410.0,9.998322248458862
2483,399.0,9.998322248458862
2484,421.0,9.998322248458862
2485,421.0,10.013947010040283
2486,399.0,10.013947010040283
2487,414.0,10.013947010040283
2488,425.0,10.029572486877441
2489,400.0,10.029572486877441
2490,409.0,10.029572486877441
2491,427.0,10.045197486877441
2492,404.0,10.045197486877441
2493,403.0,10.045197486877441
2494,433.0,10.061223030090332
2495,418.0,10.061223030090332
2496,411.0,10.061223030090332
2497,437.0,10.076852798461914
2498,439.0,10.076852798461914
2499,423.0,10.076852798461914
2500,442.0,10.092477321624756
2501,445.0,10.092477321624756
2502,424.0,10.092477321624756
2503,436.0,10.108102083206177
2504,444.0,10.108102083206177
2505,422.0,10.108102083206177
2506,426.0,10.123727798461914
2507,438.0,10.123727798461914
2508,418.0,10.123727798461914
2509,410.0,10.139352083206177
2510,433.0,10.139352083206177
2511,414.0,10.139352083206177
2512,408.0,10.154977083206177
2513,429.0,10.160496473312378
2514,423.0,10.160496473312378
2515,403.0,10.171016693115234
2516,423.0,10.171016693115234
2517,421.0,10.171016693115234
2518,398.0,10.186667442321777
2519,409.0,10.186667442321777
2520,413.0,10.186667442321777
2521,391.0,10.202290773391724
2522,392.0,10.202290773391724
2523,406.0,10.202290773391724
2524,388.0,10.217916250228882
2525,386.0,10.217916250228882
2526,410.0,10.217916250228882
2527,393.0,10.233542680740356
2528,385.0,10.233542680740356
2529,405.0,10.233542680740356
2530,402.0,10.249170541763306
2531,384.0,10.249170541763306
2532,400.0,10.260689973831177
2533,403.0,10.265198230743408
2534,382.0,10.265198230743408
2535,389.0,10.265198230743408
2536,394.0,10.280827522277832
2537,375.0,10.280827522277832
2538,375.0,10.280827522277832
2539,390.0,10.296452760696411
2540,378.0,10.296452760696411
2541,384.0,10.296452760696411
2542,403.0,10.312077283859253
2543,387.0,10.312077283859253
2544,381.0,10.312077283859253
2545,397.0,10.327702283859253
2546,387.0,10.327702283859253
2547,367.0,10.327702283859253
2548,384.0,10.343327522277832
2549,379.0,10.343327522277832
2550,354.0,10.343327522277832
2551,363.0,10.358952522277832
2552,366.0,10.358952522277832
2553,344.0,10.358952522277832
2554,342.0,10.37295651435852
2555,356.0,10.37295651435852
2556,337.0,10.37295651435852
2557,328.0,10.388586282730103
2558,332.0,10.388586282730103
2559,308.0,10.388586282730103
2560,290.0,10.404211521148682
2561,317.0,10.404211521148682
2562,368.0,10.404211521148682
2563,387.0,10.419836521148682
2564,409.0,10.419836521148682
2565,425.0,10.419836521148682
2566,420.0,10.43546175956726
2567,434.0,10.43546175956726
2568,426.0,10.43546175956726
2569,392.0,10.451921224594116
2570,380.0,10.456639766693115
2571,384.0,10.457787275314331
2572,367.0,10.457787275314331
2573,366.0,10.457787275314331
2574,380.0,10.473412275314331
2575,368.0,10.473412275314331
2576,368.0,10.473412275314331
2577,385.0,10.48903775215149
2578,380.0,10.48903775215149
2579,370.0,10.48903775215149
2580,389.0,10.50466275215149
2581,387.0,10.50466275215149
2582,375.0,10.50466275215149
2583,392.0,10.52028775215149
2584,399.0,10.52028775215149
2585,388.0,10.52028775215149
2586,393.0,10.53591275215149
2587,414.0,10.53591275215149
2588,405.0,10.53591275215149
2589,408.0,10.55153751373291
2590,430.0,10.557541608810425
2591,427.0,10.557541608810425
2592,428.0,10.567546606063843
2593,448.0,10.567546606063843
2594,451.0,10.567546606063843
2595,446.0,10.5831778049469
2596,462.0,10.5831778049469
2597,463.0,10.5831778049469
2598,452.0,10.598801612854004
2599,464.0,10.598801612854004
2600,468.0,10.598801612854004
2601,454.0,10.614426851272583
2602,461.0,10.614426851272583
2603,473.0,10.614426851272583
2604,465.0,10.630051612854004
2605,473.0,10.630051612854004
2606,492.0,10.630051612854004
2607,484.0,10.645676851272583
2608,485.0,10.645676851272583
2609,504.0,10.65768027305603
2610,500.0,10.661817073822021
2611,492.0,10.661817073822021
2612,507.0,10.661817073822021
2613,506.0,10.677464246749878
2614,488.0,10.677464246749878
2615,502.0,10.677464246749878
2616,505.0,10.693084001541138
2617,490.0,10.693084001541138
2618,495.0,10.693084001541138
2619,508.0,10.70870852470398
2620,498.0,10.70870852470398
2621,500.0,10.70870852470398
2622,518.0,10.724323034286499
2623,512.0,10.724323034286499
2624,512.0,10.724323034286499
2625,528.0,10.739959716796875
2626,526.0,10.739959716796875
2627,519.0,10.739959716796875
2628,534.0,10.757591485977173
2629,537.0,10.757591485977173
2630,526.0,10.757591485977173
2631,534.0,10.77163290977478
2632,541.0,10.77163290977478
2633,531.0,10.77163290977478
2634,536.0,10.787262439727783
2635,549.0,10.787262439727783
2636,540.0,10.787262439727783
2637,547.0,10.80288815498352
2638,568.0,10.80288815498352
2639,559.0,10.80288815498352
2640,560.0,10.818512201309204
2641,582.0,10.818512201309204
2642,579.0,10.818512201309204
2643,571.0,10.834137201309204
2644,590.0,10.834137201309204
2645,598.0,10.834137201309204
2646,586.0,10.849762439727783
2647,598.0,10.849762439727783
2648,602.0,10.849762439727783
2649,590.0,10.857778549194336
2650,592.0,10.857778549194336
2651,604.0,10.857778549194336
2652,595.0,10.87342643737793
2653,597.0,10.87342643737793
2654,609.0,10.87342643737793
2655,603.0,10.889052391052246
2656,604.0,10.889052391052246
2657,619.0,10.889052391052246
2658,618.0,10.90467643737793
2659,610.0,10.90467643737793
2660,624.0,10.90467643737793
2661,619.0,10.920302152633667
2662,595.0,10.920302152633667
2663,592.0,10.920302152633667
2664,588.0,10.935929775238037
2665,586.0,10.935929775238037
2666,651.0,10.935929775238037
2667,701.0,10.95195722579956
2668,694.0,10.95195722579956
2669,716.0,10.95195722579956
2670,745.0,10.967586517333984
2671,733.0,10.967586517333984
2672,720.0,10.967586517333984
2673,723.0,10.983684778213501
2674,705.0,10.987657070159912
2675,684.0,10.990743160247803
2676,692.0,10.990743160247803
2677,685.0,10.990743160247803
2678,667.0,11.006369352340698
2679,676.0,11.006369352340698
2680,681.0,11.006369352340698
2681,669.0,11.021993637084961
2682,674.0,11.021993637084961
2683,688.0,11.021993637084961
2684,679.0,11.037619829177856
2685,681.0,11.037619829177856
2686,698.0,11.048122882843018
2687,691.0,11.05362606048584
2688,693.0,11.05362606048584
2689,710.0,11.05362606048584
2690,711.0,11.06925630569458
2691,705.0,11.06925630569458
2692,722.0,11.06925630569458
2693,721.0,11.084880590438843
2694,714.0,11.084880590438843
2695,725.0,11.084880590438843
2696,728.0,11.10050654411316
2697,720.0,11.10050654411316
2698,730.0,11.10050654411316
2699,746.0,11.116130590438843
2700,736.0,11.116130590438843
2701,744.0,11.116130590438843
2702,763.0,11.131755590438843
2703,759.0,11.131755590438843
2704,758.0,11.131755590438843
2705,776.0,11.14838457107544
2706,776.0,11.14838457107544
2707,770.0,11.14838457107544
2708,786.0,11.16338849067688
2709,787.0,11.16338849067688
2710,778.0,11.16338849067688
2711,789.0,11.179059505462646
2712,798.0,11.179059505462646
2713,788.0,11.179059505462646
2714,796.0,11.194690704345703
2715,807.0,11.194690704345703
2716,799.0,11.194690704345703
2717,802.0,11.210314512252808
2718,816.0,11.210314512252808
2719,808.0,11.210314512252808
2720,805.0,11.225939273834229
2721,817.0,11.225939273834229
2722,812.0,11.225939273834229
2723,804.0,11.241564273834229
2724,816.0,11.241564273834229
2725,811.0,11.241564273834229
2726,802.0,11.250585556030273
2727,811.0,11.250585556030273
2728,818.0,11.250585556030273
2729,806.0,11.266236066818237
2730,812.0,11.266236066818237
2731,825.0,11.266236066818237
2732,814.0,11.281860828399658
2733,820.0,11.281860828399658
2734,836.0,11.281860828399658
2735,829.0,11.2974853515625
2736,825.0,11.2974853515625
2737,843.0,11.2974853515625
2738,841.0,11.313110828399658
2739,828.0,11.313110828399658
2740,841.0,11.313110828399658
2741,842.0,11.328735828399658
2742,831.0,11.328735828399658
2743,840.0,11.328735828399658
2744,844.0,11.34475326538086
2745,835.0,11.34475326538086
2746,840.0,11.34475326538086
2747,857.0,11.36040186882019
2748,856.0,11.36040186882019
2749,862.0,11.36040186882019
2750,872.0,11.37602710723877
2751,866.0,11.37602710723877
2752,862.0,11.37602710723877
2753,873.0,11.391650438308716
2754,868.0,11.391650438308716
2755,858.0,11.391650438308716
2756,870.0,11.407264232635498
2757,865.0,11.407264232635498
2758,849.0,11.407264232635498
2759,858.0,11.422900915145874
2760,861.0,11.422900915145874
2761,847.0,11.422900915145874
2762,852.0,11.438525438308716
2763,866.0,11.4420325756073
2764,848.0,11.4420325756073
2765,836.0,11.4420325756073
2766,841.0,11.4420325756073
2767,824.0,11.4420325756073
2768,829.0,11.4420325756073
2769,902.0,11.4420325756073
2770,931.0,11.4420325756073
2771,927.0,11.4420325756073
2772,950.0,11.4420325756073
2773,953.0,11.4420325756073
2774,931.0,11.4420325756073
2775,921.0,11.446263074874878
2776,913.0,11.449084043502808
2777,885.0,11.449084043502808
2778,877.0,11.449084043502808
2779,880.0,11.464709997177124
2780,866.0,11.464709997177124
2781,865.0,11.464709997177124
2782,873.0,11.481337547302246
2783,865.0,11.481337547302246
2784,860.0,11.481337547302246
2785,870.0,11.49635648727417
2786,866.0,11.49635648727417
2787,854.0,11.49635648727417
2788,865.0,11.51200246810913
2789,859.0,11.51200246810913
2790,844.0,11.51200246810913
2791,852.0,11.52763319015503
2792,857.0,11.52763319015503
2793,841.0,11.52763319015503
2794,844.0,11.543264865875244
2795,859.0,11.543264865875244
2796,843.0,11.543264865875244
2797,843.0,11.558874368667603
2798,858.0,11.558874368667603
2799,848.0,11.558874368667603
2800,840.0,11.57452130317688
2801,852.0,11.57452130317688
2802,847.0,11.57452130317688
2803,832.0,11.58352518081665
2804,841.0,11.58352518081665
2805,834.0,11.58352518081665
2806,821.0,11.599154472351074
2807,825.0,11.599154472351074
2808,829.0,11.599154472351074
2809,816.0,11.614778995513916
2810,819.0,11.614778995513916
2811,830.0,11.614778995513916
2812,818.0,11.630403995513916
2813,821.0,11.630403995513916
2814,833.0,11.630403995513916
2815,824.0,11.646029233932495
2816,818.0,11.646029233932495
2817,830.0,11.646029233932495
2818,822.0,11.661653995513916
2819,808.0,11.661653995513916
2820,818.0,11.661653995513916
2821,812.0,11.677674531936646
2822,795.0,11.677674531936646
2823,797.0,11.677674531936646
2824,801.0,11.69332218170166
2825,784.0,11.69332218170166
2826,783.0,11.69332218170166
2827,793.0,11.70895266532898
2828,780.0,11.70895266532898
2829,778.0,11.70895266532898
2830,789.0,11.724572896957397
2831,782.0,11.724572896957397
2832,769.0,11.724572896957397
2833,776.0,11.74019742012024
2834,772.0,11.74019742012024
2835,754.0,11.74019742012024
2836,762.0,11.755825996398926
2837,758.0,11.755825996398926
2838,742.0,11.755825996398926
2839,741.0,11.771435499191284
2840,745.0,11.774938821792603
2841,728.0,11.774938821792603
2842,732.0,11.774938821792603
2843,738.0,11.779295206069946
2844,724.0,11.783617734909058
2845,725.0,11.783617734909058
2846,736.0,11.783617734909058
2847,726.0,11.783617734909058
2848,717.0,11.783617734909058
2849,728.0,11.783617734909058
2850,723.0,11.783617734909058
2851,710.0,11.783617734909058
2852,721.0,11.783617734909058
2853,712.0,11.783617734909058
2854,687.0,11.783617734909058
2855,687.0,11.783617734909058
2856,692.0,11.783617734909058
2857,675.0,11.783617734909058
2858,674.0,11.783617734909058
2859,682.0,11.79312252998352
2860,666.0,11.79312252998352
2861,662.0,11.79312252998352
2862,670.0,11.79312252998352
2863,663.0,11.79312252998352
2864,652.0,11.79312252998352
2865,658.0,11.79312252998352
2866,650.0,11.79312252998352
2867,622.0,11.79312252998352
2868,614.0,11.79312252998352
2869,596.0,11.79312252998352
2870,576.0,11.79312252998352
2871,619.0,11.79312252998352
2872,679.0,11.79312252998352
2873,677.0,11.79312252998352
2874,685.0,11.79312252998352
2875,708.0,11.79312252998352
2876,689.0,11.797122955322266
2877,675.0,11.800252914428711
2878,670.0,11.800252914428711
2879,645.0,11.800252914428711
2880,621.0,11.809258222579956
2881,622.0,11.809258222579956
2882,609.0,11.809258222579956
2883,590.0,11.824888944625854
2884,596.0,11.824888944625854
2885,590.0,11.824888944625854
2886,572.0,11.840513706207275
2887,572.0,11.840513706207275
2888,579.0,11.840513706207275
2889,561.0,11.856138706207275
2890,559.0,11.856138706207275
2891,569.0,11.856138706207275
2892,556.0,11.871763706207275
2893,553.0,11.871763706207275
2894,560.0,11.871763706207275
2895,553.0,11.887388467788696
2896,536.0,11.887388467788696
2897,543.0,11.887388467788696
2898,534.0,11.903396844863892
2899,517.0,11.903396844863892
2900,520.0,11.903396844863892
2901,512.0,11.919026136398315
2902,495.0,11.919026136398315
2903,497.0,11.919026136398315
2904,497.0,11.934650421142578
2905,481.0,11.934650421142578
2906,480.0,11.934650421142578
2907,488.0,11.950276851654053
2908,472.0,11.950276851654053
2909,471.0,11.950276851654053
2910,478.0,11.965900897979736
2911,464.0,11.965900897979736
2912,451.0,11.965900897979736
2913,464.0,11.981525659561157
2914,457.0,11.981525659561157
2915,439.0,11.981525659561157
2916,449.0,11.997151613235474
2917,450.0,12.000669479370117
2918,436.0,12.000669479370117
2919,436.0,12.013176441192627
2920,444.0,12.013176441192627
2921,429.0,12.013176441192627
2922,428.0,12.028822898864746
2923,439.0,12.028822898864746
2924,428.0,12.028822898864746
2925,422.0,12.04443097114563
2926,430.0,12.04443097114563
2927,421.0,12.04443097114563
2928,408.0,12.06005573272705
2929,420.0,12.06005573272705
2930,409.0,12.06005573272705
2931,393.0,12.075695037841797
2932,400.0,12.075695037841797
2933,396.0,12.075695037841797
2934,381.0,12.091319799423218
2935,382.0,12.091319799423218
2936,388.0,12.100825071334839
2937,372.0,12.100825071334839
2938,374.0,12.100825071334839
2939,382.0,12.100825071334839
2940,369.0,12.100825071334839
2941,367.0,12.100825071334839
2942,376.0,12.100825071334839
2943,367.0,12.100825071334839
2944,354.0,12.100825071334839
2945,365.0,12.100825071334839
2946,358.0,12.100825071334839
2947,341.0,12.100825071334839
2948,346.0,12.100825071334839
2949,346.0,12.100825071334839
2950,329.0,12.100825071334839
2951,332.0,12.100825071334839
2952,346.0,12.100825071334839
2953,338.0,12.100825071334839
2954,337.0,12.100825071334839
2955,346.0,12.100825071334839
2956,333.0,12.100825071334839
2957,328.0,12.100825071334839
2958,333.0,12.100825071334839
2959,325.0,12.100825071334839
2960,315.0,12.100825071334839
2961,322.0,12.100825071334839
2962,313.0,12.100825071334839
2963,302.0,12.100825071334839
2964,308.0,12.100825071334839
2965,303.0,12.100825071334839
2966,288.0,12.100825071334839
2967,292.0,12.100825071334839
2968,300.0,12.100825071334839
2969,276.0,12.100825071334839
2970,260.0,12.100825071334839
2971,257.0,12.100825071334839
2972,238.0,12.100825071334839
2973,267.0,12.100825071334839
2974,341.0,12.100825071334839
2975,354.0,12.107328653335571
2976,349.0,12.107328653335571
2977,373.0,12.110810279846191
2978,372.0,12.114258050918579
2979,345.0,12.114258050918579
2980,336.0,12.114258050918579
2981,320.0,12.129883527755737
2982,292.0,12.129883527755737
2983,285.0,12.129883527755737
2984,289.0,12.145508766174316
2985,271.0,12.145508766174316
2986,270.0,12.145508766174316
2987,279.0,12.161133527755737
2988,267.0,12.161133527755737
2989,262.0,12.161133527755737
2990,272.0,12.176758289337158
2991,267.0,12.176758289337158
2992,257.0,12.176758289337158
2993,269.0,12.192383527755737
2994,265.0,12.195887565612793
2995,256.0,12.195887565612793
2996,265.0,12.208390474319458
2997,267.0,12.208390474319458
2998,254.0,12.208390474319458
2999,259.0,12.22402024269104
3000,268.0,12.22402024269104
3001,256.0,12.22402024269104
3002,262.0,12.239644527435303
3003,276.0,12.239644527435303
3004,264.0,12.239644527435303
3005,261.0,12.255269527435303
3006,274.0,12.255269527435303
3007,268.0,12.255269527435303
3008,255.0,12.270894765853882
3009,266.0,12.270894765853882
3010,262.0,12.270894765853882
3011,249.0,12.286519527435303
3012,255.0,12.286519527435303
3013,259.0,12.296036958694458
3014,248.0,12.302552223205566
3015,253.0,12.302552223205566
3016,266.0,12.302552223205566
3017,259.0,12.318198204040527
3018,268.0,12.318198204040527
3019,279.0,12.318198204040527
3020,274.0,12.333822011947632
3021,276.0,12.333822011947632
3022,289.0,12.333822011947632
3023,282.0,12.34944748878479
3024,270.0,12.34944748878479
3025,288.0,12.34944748878479
3026,281.0,12.365082263946533
3027,267.0,12.365082263946533
3028,280.0,12.365082263946533
3029,283.0,12.380688667297363
3030,268.0,12.380688667297363
3031,276.0,12.380688667297363
3032,291.0,12.396205186843872
3033,279.0,12.396205186843872
3034,285.0,12.396205186843872
3035,300.0,12.411859273910522
3036,293.0,12.411859273910522
3037,292.0,12.411859273910522
3038,307.0,12.427497148513794
3039,303.0,12.431894302368164
3040,292.0,12.433989763259888
3041,306.0,12.441493034362793
3042,303.0,12.441493034362793
3043,291.0,12.441493034362793
3044,303.0,12.441493034362793
3045,308.0,12.441493034362793
3046,298.0,12.441493034362793
3047,306.0,12.457117319107056
3048,318.0,12.457117319107056
3049,313.0,12.457117319107056
3050,319.0,12.472758769989014
3051,330.0,12.472758769989014
3052,327.0,12.472758769989014
3053,329.0,12.472758769989014
3054,343.0,12.472758769989014
3055,346.0,12.472758769989014
3056,342.0,12.472758769989014
3057,360.0,12.472758769989014
3058,353.0,12.472758769989014
3059,338.0,12.472758769989014
3060,350.0,12.472758769989014
3061,353.0,12.472758769989014
3062,339.0,12.472758769989014
3063,345.0,12.472758769989014
3064,362.0,12.472758769989014
3065,350.0,12.472758769989014
3066,356.0,12.472758769989014
3067,372.0,12.472758769989014
3068,368.0,12.472758769989014
3069,364.0,12.472758769989014
3070,379.0,12.472758769989014
3071,377.0,12.484761953353882
3072,356.0,12.484761953353882
3073,351.0,12.484761953353882
3074,337.0,12.484761953353882
3075,325.0,12.484761953353882
3076,381.0,12.484761953353882
3077,441.0,12.484761953353882
3078,450.0,12.484761953353882
3079,463.0,12.484761953353882
3080,488.0,12.484761953353882
3081,481.0,12.488404989242554
3082,476.0,12.48964548110962
3083,474.0,12.48964548110962
3084,452.0,12.48964548110962
3085,439.0,12.505271434783936
3086,446.0,12.505271434783936
3087,437.0,12.505271434783936
3088,423.0,12.520896434783936
3089,437.0,12.520896434783936
3090,435.0,12.531909227371216
3091,425.0,12.536933660507202
3092,436.0,12.536933660507202
3093,445.0,12.536933660507202
3094,435.0,12.552589416503906
3095,442.0,12.552589416503906
3096,459.0,12.552589416503906
3097,452.0,12.568211078643799
3098,458.0,12.568211078643799
3099,476.0,12.568211078643799
3100,473.0,12.583833932876587
3101,469.0,12.583833932876587
3102,486.0,12.583833932876587
3103,483.0,12.599458456039429
3104,474.0,12.599458456039429
3105,490.0,12.599458456039429
3106,489.0,12.615103244781494
3107,478.0,12.615103244781494
3108,484.0,12.615103244781494
3109,489.0,12.632230997085571
3110,483.0,12.632230997085571
3111,489.0,12.632230997085571
3112,501.0,12.646734476089478
3113,492.0,12.646734476089478
3114,500.0,12.646734476089478
3115,512.0,12.662363767623901
3116,509.0,12.662363767623901
3117,510.0,12.662363767623901
3118,525.0,12.67798900604248
3119,522.0,12.67798900604248
3120,517.0,12.67798900604248
3121,535.0,12.693613529205322
3122,536.0,12.693613529205322
3123,528.0,12.693613529205322
3124,537.0,12.709239482879639
3125,550.0,12.709239482879639
3126,540.0,12.709239482879639
3127,545.0,12.72486400604248
3128,559.0,12.72486400604248
3129,552.0,12.72486400604248
3130,554.0,12.733367204666138
3131,569.0,12.733367204666138
3132,566.0,12.733367204666138
3133,560.0,12.748996496200562
3134,574.0,12.748996496200562
3135,572.0,12.748996496200562
3136,566.0,12.764621496200562
3137,579.0,12.764621496200562
3138,579.0,12.764621496200562
3139,570.0,12.780246257781982
3140,579.0,12.780246257781982
3141,588.0,12.780246257781982
3142,579.0,12.795871496200562
3143,586.0,12.795871496200562
3144,600.0,12.795871496200562
3145,589.0,12.81149673461914
3146,595.0,12.81149673461914
3147,609.0,12.81149673461914
3148,604.0,12.827537059783936
3149,600.0,12.827537059783936
3150,615.0,12.827537059783936
3151,610.0,12.843199729919434
3152,604.0,12.843199729919434
3153,619.0,12.843199729919434
3154,618.0,12.858794212341309
3155,606.0,12.858794212341309
3156,617.0,12.858794212341309
3157,629.0,12.87443733215332
3158,624.0,12.87443733215332
3159,634.0,12.87443733215332
3160,653.0,12.8900465965271
3161,644.0,12.8900465965271
3162,644.0,12.8900465965271
3163,657.0,12.905670166015625
3164,654.0,12.905670166015625
3165,648.0,12.905670166015625
3166,658.0,12.921308994293213
3167,657.0,12.925325393676758
3168,649.0,12.925325393676758
3169,657.0,12.93733286857605
3170,657.0,12.93733286857605
3171,649.0,12.93733286857605
3172,657.0,12.952963829040527
3173,664.0,12.952963829040527
3174,655.0,12.952963829040527
3175,655.0,12.968588829040527
3176,652.0,12.968588829040527
3177,628.0,12.968588829040527
3178,619.0,12.984668970108032
3179,657.0,12.988961696624756
3180,714.0,12.99000883102417
3181,737.0,12.998023748397827
3182,762.0,12.999145030975342
3183,771.0,12.999145030975342
3184,766.0,12.999145030975342
3185,774.0,13.014805555343628
3186,761.0,13.02280879020691
3187,733.0,13.02280879020691
3188,725.0,13.034122705459595
3189,724.0,13.034675121307373
3190,709.0,13.034675121307373
3191,709.0,13.034675121307373
3192,721.0,13.050300121307373
3193,709.0,13.050300121307373
3194,711.0,13.050300121307373
3195,723.0,13.065924882888794
3196,720.0,13.065924882888794
3197,713.0,13.065924882888794
3198,727.0,13.081549882888794
3199,724.0,13.081549882888794
3200,713.0,13.081549882888794
3201,725.0,13.097174882888794
3202,725.0,13.097174882888794
3203,717.0,13.097174882888794
3204,724.0,13.112799644470215
3205,735.0,13.112799644470215
3206,727.0,13.112799644470215
3207,733.0,13.119803190231323
3208,746.0,13.119803190231323
3209,739.0,13.119803190231323
3210,742.0,13.13543176651001
3211,757.0,13.13543176651001
3212,749.0,13.13543176651001
3213,741.0,13.151057243347168
3214,757.0,13.151057243347168
3215,752.0,13.151057243347168
3216,736.0,13.16668152809143
3217,747.0,13.16668152809143
3218,749.0,13.16668152809143
3219,736.0,13.18232011795044
3220,741.0,13.18232011795044
3221,756.0,13.18232011795044
3222,747.0,13.19793176651001
3223,751.0,13.19793176651001
3224,768.0,13.19793176651001
3225,765.0,13.213940858840942
3226,764.0,13.213940858840942
3227,777.0,13.213940858840942
3228,774.0,13.22957158088684
3229,768.0,13.22957158088684
3230,780.0,13.22957158088684
3231,774.0,13.245197057723999
3232,763.0,13.245197057723999
3233,774.0,13.245197057723999
3234,772.0,13.260821104049683
3235,761.0,13.260821104049683
3236,768.0,13.260821104049683
3237,776.0,13.276447057723999
3238,764.0,13.276447057723999
3239,769.0,13.276447057723999
3240,782.0,13.292071342468262
3241,773.0,13.292071342468262
3242,772.0,13.292071342468262
3243,785.0,13.307696104049683
3244,778.0,13.313199520111084
3245,770.0,13.313199520111084
3246,784.0,13.323715448379517
3247,780.0,13.323715448379517
3248,768.0,13.323715448379517
3249,777.0,13.339364051818848
3250,778.0,13.339364051818848
3251,766.0,13.339364051818848
3252,771.0,13.354976892471313
3253,783.0,13.354976892471313
3254,773.0,13.354976892471313
3255,775.0,13.370613813400269
3256,786.0,13.370613813400269
3257,781.0,13.370613813400269
3258,776.0,13.386239767074585
3259,787.0,13.386239767074585
3260,786.0,13.386239767074585
3261,783.0,13.401851892471313
3262,797.0,13.401851892471313
3263,794.0,13.413367986679077
3264,784.0,13.417875289916992
3265,792.0,13.417875289916992
3266,787.0,13.417875289916992
3267,772.0,13.433505296707153
3268,775.0,13.433505296707153
3269,784.0,13.433505296707153
3270,770.0,13.449130535125732
3271,774.0,13.449130535125732
3272,785.0,13.449130535125732
3273,773.0,13.464755058288574
3274,768.0,13.464755058288574
3275,783.0,13.464755058288574
3276,776.0,13.480380296707153
3277,764.0,13.480380296707153
3278,770.0,13.480380296707153
3279,749.0,13.496004819869995
3280,721.0,13.496004819869995
3281,715.0,13.496004819869995
3282,732.0,13.513205766677856
3283,775.0,13.51753544807434
3284,802.0,13.51753544807434
3285,821.0,13.51753544807434
3286,823.0,13.533174991607666
3287,840.0,13.533174991607666
3288,846.0,13.533174991607666
3289,822.0,13.548802852630615
3290,804.0,13.548802852630615
3291,798.0,13.548802852630615
3292,781.0,13.564427614212036
3293,763.0,13.564427614212036
3294,770.0,13.564427614212036
3295,760.0,13.580036640167236
3296,746.0,13.580036640167236
3297,751.0,13.580036640167236
3298,750.0,13.59566068649292
3299,735.0,13.59566068649292
3300,739.0,13.59566068649292
3301,747.0,13.611303567886353
3302,734.0,13.613312005996704
3303,737.0,13.613312005996704
3304,749.0,13.613312005996704
3305,739.0,13.613312005996704
3306,736.0,13.613312005996704
3307,748.0,13.613312005996704
3308,741.0,13.613312005996704
3309,729.0,13.613312005996704
3310,742.0,13.613312005996704
3311,739.0,13.613312005996704
3312,725.0,13.613312005996704
3313,730.0,13.613312005996704
3314,734.0,13.613312005996704
3315,723.0,13.613312005996704
3316,725.0,13.613312005996704
3317,734.0,13.613312005996704
3318,724.0,13.613312005996704
3319,725.0,13.628937244415283
3320,732.0,13.628937244415283
3321,726.0,13.636955499649048
3322,722.0,13.636955499649048
3323,729.0,13.636955499649048
3324,722.0,13.636955499649048
3325,712.0,13.636955499649048
3326,724.0,13.636955499649048
3327,716.0,13.636955499649048
3328,701.0,13.636955499649048
3329,710.0,13.636955499649048
3330,709.0,13.636955499649048
3331,689.0,13.636955499649048
3332,690.0,13.636955499649048
3333,702.0,13.636955499649048
3334,684.0,13.636955499649048
3335,682.0,13.636955499649048
3336,690.0,13.636955499649048
3337,679.0,13.636955499649048
3338,668.0,13.636955499649048
3339,679.0,13.636955499649048
3340,673.0,13.650967359542847
3341,660.0,13.650967359542847
3342,666.0,13.650967359542847
3343,661.0,13.650967359542847
3344,646.0,13.650967359542847
3345,651.0,13.650967359542847
3346,652.0,13.650967359542847
3347,638.0,13.650967359542847
3348,640.0,13.650967359542847
3349,648.0,13.650967359542847
3350,634.0,13.650967359542847
3351,634.0,13.650967359542847
3352,643.0,13.650967359542847
3353,633.0,13.650967359542847
3354,627.0,13.650967359542847
3355,638.0,13.650967359542847
3356,630.0,13.650967359542847
3357,620.0,13.650967359542847
3358,631.0,13.650967359542847
3359,622.0,13.650967359542847
3360,608.0,13.650967359542847
3361,615.0,13.650967359542847
3362,618.0,13.662470817565918
3363,606.0,13.662470817565918
3364,616.0,13.662470817565918
3365,629.0,13.662470817565918
3366,616.0,13.662470817565918
3367,616.0,13.662470817565918
3368,625.0,13.662470817565918
3369,613.0,13.662470817565918
3370,602.0,13.662470817565918
3371,610.0,13.678095817565918
3372,603.0,13.678095817565918
3373,588.0,13.678095817565918
3374,597.0,13.693721055984497
3375,594.0,13.693721055984497
3376,577.0,13.693721055984497
3377,579.0,13.709345817565918
3378,581.0,13.709345817565918
3379,570.0,13.719850778579712
3380,566.0,13.725353479385376
3381,559.0,13.725353479385376
3382,532.0,13.725353479385376
3383,524.0,13.7409827709198
3384,534.0,13.7409827709198
3385,577.0,13.7409827709198
3386,614.0,13.759278774261475
3387,629.0,13.761059761047363
3388,630.0,13.761059761047363
3389,632.0,13.761059761047363
3390,643.0,13.776666164398193
3391,622.0,13.776666164398193
3392,591.0,13.776666164398193
3393,581.0,13.792291164398193
3394,571.0,13.792291164398193
3395,548.0,13.792291164398193
3396,545.0,13.807915210723877
3397,553.0,13.807915210723877
3398,536.0,13.817921161651611
3399,532.0,13.82392430305481
3400,541.0,13.82392430305481
3401,530.0,13.82392430305481
3402,522.0,13.839553594589233
3403,529.0,13.839553594589233
3404,520.0,13.839553594589233
3405,508.0,13.855178833007812
3406,516.0,13.855178833007812
3407,511.0,13.855178833007812
3408,499.0,13.870803594589233
3409,506.0,13.870803594589233
3410,511.0,13.870803594589233
3411,500.0,13.886428833007812
3412,505.0,13.886428833007812
3413,514.0,13.886428833007812
3414,504.0,13.902053833007812
3415,508.0,13.902053833007812
3416,517.0,13.902053833007812
3417,509.0,13.918200492858887
3418,505.0,13.918200492858887
3419,514.0,13.918200492858887
3420,505.0,13.933704853057861
3421,495.0,13.933704853057861
3422,505.0,13.933704853057861
3423,499.0,13.949333906173706
3424,485.0,13.949333906173706
3425,490.0,13.949333906173706
3426,496.0,13.964958906173706
3427,483.0,13.964958906173706
3428,485.0,13.964958906173706
3429,498.0,13.980584859848022
3430,487.0,13.980584859848022
3431,487.0,13.980584859848022
3432,497.0,13.996224880218506
3433,489.0,13.996224880218506
3434,480.0,13.996224880218506
3435,487.0,14.011834383010864
3436,481.0,14.018357515335083
3437,466.0,14.018357515335083
3438,471.0,14.028214693069458
3439,466.0,14.0324068069458
3440,454.0,14.033453702926636
3441,458.0,14.041456699371338
3442,461.0,14.041456699371338
3443,450.0,14.041456699371338
3444,456.0,14.057093858718872
3445,468.0,14.057093858718872
3446,456.0,14.057093858718872
3447,459.0,14.072710752487183
3448,469.0,14.072710752487183
3449,459.0,14.072710752487183
3450,451.0,14.088335275650024
3451,464.0,14.088335275650024
3452,457.0,14.088335275650024
3453,444.0,14.103960275650024
3454,456.0,14.103960275650024
3455,451.0,14.103960275650024
3456,438.0,14.107463598251343
3457,442.0,14.107463598251343
3458,449.0,14.107463598251343
3459,437.0,14.123092412948608
3460,441.0,14.123092412948608
3461,452.0,14.123092412948608
3462,442.0,14.138718128204346
3463,445.0,14.138718128204346
3464,458.0,14.138718128204346
3465,451.0,14.154342889785767
3466,448.0,14.154342889785767
3467,462.0,14.154342889785767
3468,458.0,14.169968128204346
3469,446.0,14.169968128204346
3470,450.0,14.169968128204346
3471,446.0,14.185593128204346
3472,434.0,14.185593128204346
3473,439.0,14.185593128204346
3474,444.0,14.201218843460083
3475,433.0,14.204222440719604
3476,435.0,14.204222440719604
3477,444.0,14.217236995697021
3478,433.0,14.217236995697021
3479,434.0,14.217236995697021
3480,446.0,14.232872724533081
3481,435.0,14.232872724533081
3482,425.0,14.232872724533081
3483,427.0,14.248509168624878
3484,404.0,14.248509168624878
3485,378.0,14.248509168624878
3486,392.0,14.264134168624878
3487,444.0,14.268339395523071
3488,470.0,14.27116847038269
3489,485.0,14.27116847038269
3490,506.0,14.27116847038269
3491,505.0,14.286793947219849
3492,502.0,14.286793947219849
3493,495.0,14.286793947219849
3494,472.0,14.302922487258911
3495,458.0,14.302922487258911
3496,454.0,14.302922487258911
3497,441.0,14.318424463272095
3498,429.0,14.318424463272095
3499,436.0,14.318424463272095
3500,427.0,14.334054470062256
3501,414.0,14.334054470062256
3502,427.0,14.334054470062256
3503,422.0,14.349679708480835
3504,408.0,14.349679708480835
3505,415.0,14.349679708480835
3506,426.0,14.365304708480835
3507,410.0,14.365304708480835
3508,420.0,14.365304708480835
3509,433.0,14.380929708480835
3510,422.0,14.380929708480835
3511,424.0,14.380929708480835
3512,436.0,14.396554470062256
3513,427.0,14.403059959411621
3514,417.0,14.403059959411621
3515,433.0,14.412564992904663
3516,428.0,14.412564992904663
3517,413.0,14.412564992904663
3518,427.0,14.428196430206299
3519,427.0,14.428196430206299
3520,409.0,14.428196430206299
3521,412.0,14.443820714950562
3522,424.0,14.443820714950562
3523,410.0,14.443820714950562
3524,412.0,14.45944619178772
3525,429.0,14.45944619178772
3526,420.0,14.45944619178772
3527,423.0,14.47507119178772
3528,435.0,14.47507119178772
3529,434.0,14.47507119178772
3530,428.0,14.490695714950562
3531,440.0,14.490695714950562
3532,438.0,14.490695714950562
3533,429.0,14.494200229644775
3534,440.0,14.494200229644775
3535,437.0,14.494200229644775
3536,427.0,14.509830474853516
3537,432.0,14.509830474853516
3538,437.0,14.509830474853516
3539,425.0,14.525455713272095
3540,429.0,14.525455713272095
3541,440.0,14.525455713272095
3542,427.0,14.541080236434937
3543,429.0,14.541080236434937
3544,445.0,14.541080236434937
3545,437.0,14.556705474853516
3546,428.0,14.556705474853516
3547,441.0,14.556705474853516
3548,437.0,14.572330474853516
3549,424.0,14.572330474853516
3550,435.0,14.572330474853516
3551,438.0,14.587955474853516
3552,426.0,14.590959787368774
3553,429.0,14.590959787368774
3554,439.0,14.603963136672974
3555,429.0,14.603963136672974
3556,434.0,14.603963136672974
3557,445.0,14.619592189788818
3558,435.0,14.619592189788818
3559,436.0,14.619592189788818
3560,447.0,14.635234355926514
3561,441.0,14.635234355926514
3562,434.0,14.635234355926514
3563,446.0,14.650842905044556
3564,441.0,14.650842905044556
3565,432.0,14.650842905044556
3566,441.0,14.666467189788818
3567,442.0,14.666467189788818
3568,433.0,14.666467189788818
3569,444.0,14.682092189788818
3570,456.0,14.682092189788818
3571,445.0,14.691095113754272
3572,448.0,14.698097705841064
3573,460.0,14.698097705841064
3574,448.0,14.698097705841064
3575,447.0,14.713728666305542
3576,460.0,14.713728666305542
3577,453.0,14.713728666305542
3578,442.0,14.729369878768921
3579,459.0,14.729369878768921
3580,454.0,14.729369878768921
3581,441.0,14.729369878768921
3582,449.0,14.729369878768921
3583,453.0,14.729369878768921
3584,442.0,14.729369878768921
3585,442.0,14.729369878768921
3586,439.0,14.729369878768921
3587,413.0,14.744994878768921
3588,409.0,14.748677968978882
3589,432.0,14.751124382019043
3590,480.0,14.757128238677979
3591,517.0,14.757128238677979
3592,537.0,14.766631603240967
3593,541.0,14.766631603240967
3594,543.0,14.766631603240967
3595,549.0,14.78226089477539
3596,526.0,14.78226089477539
3597,499.0,14.78226089477539
3598,497.0,14.797885656356812
3599,485.0,14.797885656356812
3600,464.0,14.797885656356812
3601,468.0,14.813556909561157
3602,474.0,14.813556909561157
3603,461.0,14.813556909561157
3604,465.0,14.829137325286865
3605,478.0,14.829137325286865
3606,470.0,14.829137325286865
3607,466.0,14.84476113319397
3608,480.0,14.84476113319397
3609,477.0,14.84476113319397
3610,469.0,14.848264694213867
3611,484.0,14.848264694213867
3612,480.0,14.848264694213867
3613,472.0,14.863905191421509
3614,481.0,14.863905191421509
3615,485.0,14.863905191421509
3616,474.0,14.879544496536255
3617,481.0,14.879544496536255
3618,492.0,14.879544496536255
3619,483.0,14.895143747329712
3620,487.0,14.895143747329712
3621,498.0,14.895143747329712
3622,490.0,14.910768747329712
3623,488.0,14.910768747329712
3624,499.0,14.910768747329712
3625,492.0,14.926393985748291
3626,484.0,14.926393985748291
3627,496.0,14.926393985748291
3628,489.0,14.942030191421509
3629,480.0,14.945035934448242
3630,490.0,14.945035934448242
3631,493.0,14.958053350448608
3632,484.0,14.958053350448608
3633,494.0,14.958053350448608
3634,508.0,14.973694324493408
3635,499.0,14.973694324493408
3636,506.0,14.973694324493408
3637,525.0,14.989319801330566
3638,519.0,14.989319801330566
3639,514.0,14.989319801330566
3640,531.0,15.004945755004883
3641,525.0,15.004945755004883
3642,514.0,15.004945755004883
3643,528.0,15.020569562911987
3644,525.0,15.020569562911987
3645,516.0,15.020569562911987
3646,522.0,15.036208152770996
3647,526.0,15.036208152770996
3648,518.0,15.045239686965942
3649,524.0,15.05224609375
3650,534.0,15.05224609375
3651,525.0,15.05224609375
3652,532.0,15.067874908447266
3653,542.0,15.067874908447266
3654,536.0,15.067874908447266
3655,536.0,15.083500146865845
3656,548.0,15.083500146865845
3657,543.0,15.083500146865845
3658,535.0,15.099125146865845
3659,550.0,15.099125146865845
3660,548.0,15.099125146865845
3661,535.0,15.114750146865845
3662,545.0,15.114750146865845
3663,554.0,15.114750146865845
3664,542.0,15.130375385284424
3665,548.0,15.130375385284424
3666,562.0,15.130375385284424
3667,553.0,15.14640760421753
3668,556.0,15.14640760421753
3669,570.0,15.14640760421753
3670,566.0,15.162055969238281
3671,561.0,15.162055969238281
3672,578.0,15.162055969238281
3673,579.0,15.177680492401123
3674,572.0,15.177680492401123
3675,584.0,15.177680492401123
3676,582.0,15.193304300308228
3677,569.0,15.193304300308228
3678,573.0,15.193304300308228
3679,578.0,15.20892882347107
3680,568.0,15.20892882347107
3681,571.0,15.20892882347107
3682,581.0,15.22455382347107
3683,573.0,15.22455382347107
3684,577.0,15.22455382347107
3685,588.0,15.24017882347107
3686,581.0,15.24017882347107
3687,580.0,15.24017882347107
3688,594.0,15.24017882347107
3689,584.0,15.243884325027466
3690,562.0,15.247402429580688
3691,562.0,15.247402429580688
3692,547.0,15.247402429580688
3693,535.0,15.263041019439697
3694,594.0,15.263041019439697
3695,646.0,15.263041019439697
3696,643.0,15.27866506576538
3697,656.0,15.27866506576538
3698,684.0,15.27866506576538
3699,673.0,15.294294834136963
3700,662.0,15.294294834136963
3701,658.0,15.294294834136963
3702,639.0,15.30991792678833
3703,622.0,15.30991792678833
3704,628.0,15.30991792678833
3705,621.0,15.325544357299805
3706,608.0,15.328051805496216
3707,618.0,15.328051805496216
3708,614.0,15.341554880142212
3709,603.0,15.341554880142212
3710,608.0,15.341554880142212
3711,612.0,15.357183694839478
3712,602.0,15.357183694839478
3713,610.0,15.357183694839478
3714,624.0,15.372808456420898
3715,614.0,15.372808456420898
3716,617.0,15.372808456420898
3717,633.0,15.388433694839478
3718,626.0,15.388433694839478
3719,622.0,15.388433694839478
3720,638.0,15.404058694839478
3721,632.0,15.404058694839478
3722,621.0,15.404058694839478
3723,636.0,15.419683456420898
3724,632.0,15.419683456420898
3725,619.0,15.428187847137451
3726,626.0,15.435691595077515
3727,633.0,15.435691595077515
3728,622.0,15.435691595077515
3729,626.0,15.45132040977478
3730,639.0,15.45132040977478
3731,627.0,15.45132040977478
3732,629.0,15.46694564819336
3733,642.0,15.46694564819336
3734,638.0,15.46694564819336
3735,630.0,15.48257040977478
3736,645.0,15.48257040977478
3737,642.0,15.48257040977478
3738,634.0,15.498195886611938
3739,643.0,15.498195886611938
3740,644.0,15.498195886611938
3741,637.0,15.51382064819336
3742,644.0,15.51382064819336
3743,650.0,15.51382064819336
3744,641.0,15.529842615127563
3745,646.0,15.529842615127563
3746,655.0,15.529842615127563
3747,646.0,15.545490026473999
3748,649.0,15.545490026473999
3749,662.0,15.545490026473999
3750,653.0,15.561124801635742
3751,648.0,15.561124801635742
3752,662.0,15.561124801635742
3753,656.0,15.57674527168274
3754,645.0,15.57674527168274
3755,655.0,15.57674527168274
3756,654.0,15.59236764907837
3757,641.0,15.59236764907837
3758,646.0,15.59236764907837
3759,655.0,15.607998371124268
3760,643.0,15.607998371124268
3761,646.0,15.607998371124268
3762,660.0,15.623620510101318
3763,650.0,15.628636837005615
3764,651.0,15.628636837005615
3765,662.0,15.628636837005615
3766,656.0,15.628636837005615
3767,651.0,15.628636837005615
3768,662.0,15.628636837005615
3769,658.0,15.628636837005615
3770,648.0,15.628636837005615
3771,658.0,15.628636837005615
3772,656.0,15.628636837005615
3773,644.0,15.628636837005615
3774,650.0,15.628636837005615
3775,658.0,15.628636837005615
3776,649.0,15.628636837005615
3777,655.0,15.628636837005615
3778,670.0,15.628636837005615
3779,663.0,15.628636837005615
3780,669.0,15.628636837005615
3781,682.0,15.628636837005615
3782,673.0,15.628636837005615
3783,665.0,15.628636837005615
3784,676.0,15.628636837005615
3785,669.0,15.628636837005615
3786,656.0,15.628636837005615
3787,667.0,15.628636837005615
3788,666.0,15.628636837005615
3789,651.0,15.628636837005615
3790,655.0,15.628636837005615
3791,665.0,15.628636837005615
3792,654.0,15.628636837005615
3793,654.0,15.63225245475769
3794,667.0,15.633501052856445
3795,653.0,15.633501052856445
3796,636.0,15.633501052856445
3797,636.0,15.649125337600708
3798,621.0,15.649125337600708
3799,636.0,15.649125337600708
3800,706.0,15.664750576019287
3801,727.0,15.664750576019287
3802,727.0,15.675254583358765
3803,749.0,15.680772066116333
3804,752.0,15.680772066116333
3805,733.0,15.680772066116333
3806,722.0,15.696409225463867
3807,713.0,15.696409225463867
3808,682.0,15.696409225463867
3809,680.0,15.71203327178955
3810,685.0,15.71203327178955
3811,668.0,15.71203327178955
3812,667.0,15.727658987045288
3813,681.0,15.727658987045288
3814,674.0,15.727658987045288
3815,664.0,15.743283748626709
3816,675.0,15.743283748626709
3817,670.0,15.743283748626709
3818,657.0,15.758908987045288
3819,667.0,15.758908987045288
3820,668.0,15.758908987045288
3821,655.0,15.775537729263306
3822,658.0,15.775537729263306
3823,669.0,15.775537729263306
3824,658.0,15.79054069519043
3825,663.0,15.79054069519043
3826,675.0,15.79054069519043
3827,665.0,15.806180238723755
3828,666.0,15.806180238723755
3829,676.0,15.806180238723755
3830,672.0,15.821806192398071
3831,663.0,15.821806192398071
3832,673.0,15.821806192398071
3833,666.0,15.837419509887695
3834,653.0,15.837419509887695
3835,661.0,15.837419509887695
3836,657.0,15.85305666923523
3837,646.0,15.85305666923523
3838,650.0,15.85305666923523
3839,657.0,15.868669748306274
3840,645.0,15.875672817230225
3841,652.0,15.875672817230225
3842,664.0,15.884679317474365
3843,655.0,15.884679317474365
3844,655.0,15.884679317474365
3845,672.0,15.900313377380371
3846,663.0,15.900313377380371
3847,655.0,15.900313377380371
3848,666.0,15.915946960449219
3849,661.0,15.915946960449219
3850,644.0,15.915946960449219
3851,652.0,15.931559562683105
3852,653.0,15.931559562683105
3853,640.0,15.931559562683105
3854,640.0,15.94718623161316
3855,651.0,15.94718623161316
3856,641.0,15.94718623161316
3857,641.0,15.962819814682007
3858,655.0,15.962819814682007
3859,646.0,15.962819814682007
3860,645.0,15.965833902359009
3861,655.0,15.965833902359009
3862,649.0,15.965833902359009
3863,640.0,15.981469631195068
3864,653.0,15.981469631195068
3865,645.0,15.981469631195068
3866,632.0,15.99709439277649
3867,641.0,15.99709439277649
3868,641.0,15.99709439277649
3869,627.0,16.01271939277649
3870,632.0,16.01271939277649
3871,641.0,16.01271939277649
3872,627.0,16.02834415435791
3873,629.0,16.02834415435791
3874,643.0,16.02834415435791
3875,633.0,16.04396915435791
3876,629.0,16.04396915435791
3877,642.0,16.04396915435791
3878,637.0,16.05959415435791
3879,627.0,16.06309700012207
3880,640.0,16.06309700012207
3881,633.0,16.07560920715332
3882,622.0,16.07560920715332
3883,631.0,16.07560920715332
3884,634.0,16.091243743896484
3885,626.0,16.091243743896484
3886,633.0,16.091243743896484
3887,643.0,16.106868505477905
3888,630.0,16.106868505477905
3889,632.0,16.106868505477905
3890,641.0,16.122504711151123
3891,630.0,16.122504711151123
3892,627.0,16.122504711151123
3893,634.0,16.138733386993408
3894,627.0,16.14316987991333
3895,618.0,16.144686460494995
3896,628.0,16.144686460494995
3897,621.0,16.144686460494995
3898,608.0,16.161314725875854
3899,617.0,16.161314725875854
3900,616.0,16.161314725875854
3901,600.0,16.176318645477295
3902,590.0,16.176318645477295
3903,586.0,16.176318645477295
3904,559.0,16.191948413848877
3905,565.0,16.191948413848877
3906,632.0,16.191948413848877
3907,663.0,16.207573175430298
3908,669.0,16.207573175430298
3909,692.0,16.207573175430298
3910,704.0,16.223198175430298
3911,687.0,16.223198175430298
3912,684.0,16.223198175430298
3913,663.0,16.238837003707886
3914,633.0,16.238837003707886
3915,624.0,16.238837003707886
3916,618.0,16.25444746017456
3917,601.0,16.26145100593567
3918,598.0,16.26145100593567
3919,606.0,16.27046823501587
3920,594.0,16.27046823501587
3921,597.0,16.27046823501587
3922,607.0,16.286118268966675
3923,598.0,16.286118268966675
3924,594.0,16.286118268966675
3925,604.0,16.301745891571045
3926,595.0,16.301745891571045
3927,584.0,16.301745891571045
3928,597.0,16.3173668384552
3929,592.0,16.3173668384552
3930,577.0,16.3173668384552
3931,586.0,16.33299207687378
3932,588.0,16.33299207687378
3933,572.0,16.33299207687378
3934,578.0,16.348620176315308
3935,589.0,16.348620176315308
3936,573.0,16.348620176315308
3937,576.0,16.35162329673767
3938,586.0,16.35162329673767
3939,578.0,16.35162329673767
3940,570.0,16.367252111434937
3941,582.0,16.367252111434937
3942,574.0,16.367252111434937
3943,560.0,16.382877349853516
3944,571.0,16.382877349853516
3945,568.0,16.382877349853516
3946,555.0,16.398502349853516
3947,559.0,16.398502349853516
3948,562.0,16.398502349853516
3949,553.0,16.414127588272095
3950,557.0,16.414127588272095
3951,568.0,16.414127588272095
3952,557.0,16.429752111434937
3953,559.0,16.429752111434937
3954,568.0,16.429752111434937
3955,558.0,16.445376873016357
3956,556.0,16.448880195617676
3957,566.0,16.448880195617676
3958,557.0,16.461384773254395
3959,545.0,16.461384773254395
3960,558.0,16.461384773254395
3961,548.0,16.477014780044556
3962,535.0,16.477014780044556
3963,543.0,16.477014780044556
3964,545.0,16.492639780044556
3965,529.0,16.492639780044556
3966,532.0,16.492639780044556
3967,543.0,16.508265733718872
